0.005249,0.007874,0.018372,0.015748,0.010498,-0.002625,0.007874,0,-0.010498,-0.010498,0.002625,0,0.015748,0.023621,0.020997,0.026246,0.039369,0.031495,0.039369,0.028871,0.031495,0.020997,0.005249,0.018372,0.007874,0.002625,-0.013123,-0.007874,0,-0.010498,-0.013123,-0.020997,-0.03412,-0.052492,-0.070864,-0.065615,-0.070864,-0.081362,-0.073489,-0.086612,-0.083987,-0.086612,-0.089236,-0.089236,-0.089236,-0.094485,-0.09711,-0.10236,-0.091861,-0.099734,-0.094485,-0.099734,-0.10236,-0.099734,-0.10761,-0.10236,-0.099734,-0.11023,-0.10236,-0.10761,-0.11023,-0.10236,-0.10761,-0.10498,-0.10498,-0.10236,-0.11023,-0.10236,-0.10236,-0.11548,-0.10236,-0.10498,-0.094485,-0.10236,-0.10236,-0.10236,-0.10498,-0.10236,-0.10761,-0.11286,-0.099734,-0.094485,-0.10236,-0.10761,-0.094485,-0.094485,-0.099734,-0.094485,-0.10236,-0.094485,-0.089236,-0.094485,-0.089236,-0.09711,-0.099734,-0.091861,-0.081362,-0.091861,-0.083987,-0.086612,-0.083987,-0.091861,-0.086612,-0.089236,-0.09711,-0.11023,-0.099734,-0.094485,-0.073489,-0.036744,0.002625,0.03412,0.026246,0.013123,0.049867,0.089236,0.12598,0.19684,0.25983,0.36482,0.52229,0.75063,0.93698,1.0315,1.0472,0.94223,0.70601,0.39894,0.083987,-0.1496,-0.3097,-0.38582,-0.43306,-0.48555,-0.54854,-0.57216,-0.56429,-0.54067,-0.49342,-0.41994,-0.35957,-0.30445,-0.26246,-0.23096,-0.21522,-0.17585,-0.1391,-0.091861,-0.076113,-0.073489,-0.057741,-0.052492,-0.052492,-0.06299,-0.047243,-0.044618,-0.049867,-0.041993,-0.03412,-0.031495,-0.031495,-0.036744,-0.015748,-0.020997,-0.020997,-0.015748,-0.010498,-0.013123,-0.020997,-0.007874,0.002625,0.002625,-0.013123,-0.002625,0.002625,0.002625,-0.002625,0.002625,0,-0.002625,0.013123,0.005249,0.005249,0,0.013123,0.002625,0.010498,0.020997,0.013123,0.020997,0.031495,0.039369,0.039369,0.03412,0.041993,0.03412,0.049867,0.055116,0.049867,0.060366,0.068239,0.078738,0.073489,0.076113,0.073489,0.078738,0.089236,0.09711,0.10761,0.12336,0.12598,0.1286,0.15223,0.15748,0.16797,0.17322,0.19159,0.19684,0.20734,0.23621,0.23884,0.25196,0.26508,0.28608,0.2887,0.31758,0.3202,0.32282,0.35432,0.37794,0.38319,0.39106,0.42518,0.43306,0.44618,0.46718,0.47243,0.4803,0.49342,0.49605,0.50917,0.50655,0.52492,0.52492,0.53542,0.53279,0.53017,0.53279,0.52492,0.52229,0.51704,0.50917,0.4908,0.47505,0.46455,0.44618,0.42518,0.42256,0.40156,0.37007,0.35432,0.32545,0.30445,0.28346,0.27033,0.25196,0.22309,0.20734,0.19422,0.16535,0.1601,0.1391,0.11811,0.11286,0.09711,0.078738,0.073489,0.068239,0.060366,0.052492,0.041993,0.039369,0.039369,0.023621,0.020997,0.023621,0.010498,0.002625,0.010498,0.007874,-0.002625,0.002625,0,-0.007874,-0.002625,-0.005249,-0.005249,-0.010498,-0.015748,-0.010498,-0.007874,-0.026246,-0.018372,-0.013123,-0.020997,-0.031495,-0.020997,-0.005249,-0.018372,-0.007874,0,-0.007874,-0.013123,-0.026246,-0.023621,-0.023621,-0.010498,-0.026246,-0.013123,-0.023621,-0.020997,-0.010498,-0.020997,-0.013123,-0.018372,-0.007874,-0.005249,0.002625,-0.010498,-0.007874,-0.002625,-0.007874,-0.005249,-0.005249,-0.002625,-0.005249,-0.007874,-0.013123,-0.013123,-0.005249,0.007874,-0.015748,-0.002625,-0.005249,-0.005249,-0.005249,0,0.002625,0.007874,-0.002625,0,0,0,0,0.005249,0,0.002625,0,0.005249,0.002625,0.002625,0.007874,0.010498,0.005249,0.002625,0.005249,0.002625,-0.002625,-0.002625,0.005249,0.002625,-0.002625,0.005249,0.005249,0.002625,-0.002625,0.002625,0.005249,0.005249,-0.007874,-0.002625,0.002625,0,-0.013123,-0.005249,-0.013123,-0.010498,-0.007874,-0.020997,-0.010498,-0.013123,-0.002625,-0.005249,-0.007874,0,-0.015748,-0.013123,-0.018372,-0.026246,-0.015748,-0.018372,-0.028871,-0.018372,-0.015748,-0.015748,-0.020997,-0.026246,-0.028871,-0.031495,-0.031495,-0.03412,-0.020997,-0.028871,-0.03412,-0.03412,-0.018372,-0.028871,-0.031495,-0.026246,-0.028871,-0.028871,-0.026246,-0.026246,-0.052492,-0.041993,-0.031495,-0.03412,-0.03412,-0.039369,-0.026246,-0.031495,-0.036744,-0.028871,-0.044618,-0.03412,-0.028871,-0.03412,-0.03412,-0.036744,-0.03412,-0.044618,-0.039369,-0.041993,-0.044618,-0.026246,-0.036744,-0.03412,-0.036744,-0.039369,-0.031495,-0.036744,-0.044618,-0.039369,-0.044618,-0.041993,-0.036744,-0.039369,-0.044618,-0.031495,-0.03412,-0.036744,-0.041993,-0.047243,-0.039369,-0.036744,-0.026246,-0.036744,-0.026246,-0.03412,-0.03412,-0.041993,-0.047243,-0.052492,-0.047243,-0.052492,-0.041993,-0.03412,-0.031495,-0.031495,-0.028871,-0.028871,-0.041993,-0.026246,-0.03412,-0.026246,-0.041993,-0.039369,-0.039369,-0.036744,-0.039369,-0.052492,-0.041993,-0.03412,-0.044618,-0.041993,-0.031495,-0.013123,-0.010498,0.010498,0.010498,0.028871,0.039369,0.039369,0.039369,0.049867,0.031495,0.026246,0.023621,0.023621,0.036744,0.041993,0.065615,0.060366,0.06299,0.073489,0.065615,0.076113,0.073489,0.055116,0.057741,0.041993,0.036744,0.03412,0.023621,0.020997,0.005249,0.015748,0.03412,0.031495,0.020997,0.005249,-0.020997,-0.028871,-0.047243,-0.052492,-0.060366,-0.065615,-0.055116,-0.06299,-0.06299,-0.068239,-0.068239,-0.089236,-0.070864,-0.086612,-0.083987,-0.094485,-0.091861,-0.091861,-0.09711,-0.099734,-0.099734,-0.094485,-0.09711,-0.099734,-0.10498,-0.094485,-0.09711,-0.11548,-0.10761,-0.10498,-0.11023,-0.099734,-0.099734,-0.11286,-0.11811,-0.11023,-0.099734,-0.10761,-0.10761,-0.10498,-0.11023,-0.11811,-0.12336,-0.10761,-0.11811,-0.12073,-0.12336,-0.11023,-0.11811,-0.11548,-0.11023,-0.11023,-0.12073,-0.10761,-0.11023,-0.099734,-0.10498,-0.11023,-0.099734,-0.10761,-0.11286,-0.10236,-0.09711,-0.10498,-0.11548,-0.099734,-0.099734,-0.11286,-0.11548,-0.12336,-0.11548,-0.11548,-0.11548,-0.089236,-0.068239,-0.020997,0.018372,0.020997,0.010498,0.013123,0.023621,0.055116,0.10236,0.1706,0.2887,0.46718,0.67714,0.83462,0.90811,0.90548,0.83987,0.65877,0.38319,0.12073,-0.10236,-0.27296,-0.35169,-0.40944,-0.46455,-0.5013,-0.53804,-0.56954,-0.56954,-0.54329,-0.49867,-0.43568,-0.37532,-0.32282,-0.30183,-0.26508,-0.24409,-0.22834,-0.20997,-0.19422,-0.15485,-0.12598,-0.10498,-0.09711,-0.089236,-0.083987,-0.078738,-0.073489,-0.081362,-0.068239,-0.06299,-0.076113,-0.073489,-0.070864,-0.068239,-0.06299,-0.055116,-0.073489,-0.057741,-0.047243,-0.049867,-0.044618,-0.047243,-0.041993,-0.060366,-0.052492,-0.052492,-0.057741,-0.055116,-0.047243,-0.047243,-0.041993,-0.041993,-0.039369,-0.052492,-0.044618,-0.052492,-0.036744,-0.031495,-0.03412,-0.028871,-0.026246,-0.013123,-0.028871,-0.018372,-0.015748,-0.020997,-0.018372,-0.010498,-0.020997,-0.005249,0.005249,0.015748,0.023621,0.023621,0.023621,0.039369,0.028871,0.049867,0.052492,0.052492,0.055116,0.068239,0.073489,0.086612,0.10498,0.11023,0.12598,0.13385,0.13648,0.1391,0.16797,0.18635,0.20209,0.21522,0.24146,0.24671,0.25983,0.27821,0.28346,0.30708,0.3202,0.33332,0.34907,0.36744,0.37794,0.39894,0.40681,0.42518,0.43568,0.44356,0.43831,0.46193,0.46193,0.46193,0.4593,0.47243,0.49342,0.48292,0.47243,0.46455,0.4698,0.46718,0.45405,0.44618,0.43043,0.40156,0.39106,0.37269,0.34907,0.33857,0.31233,0.28346,0.25983,0.23884,0.22309,0.20734,0.18372,0.15748,0.14435,0.13385,0.11548,0.086612,0.078738,0.057741,0.039369,0.031495,0.026246,0.015748,0.010498,-0.005249,-0.010498,-0.020997,-0.031495,-0.020997,-0.036744,-0.055116,-0.060366,-0.081362,-0.065615,-0.060366,-0.060366,-0.070864,-0.068239,-0.070864,-0.078738,-0.078738,-0.076113,-0.076113,-0.081362,-0.089236,-0.076113,-0.073489,-0.076113,-0.083987,-0.083987,-0.094485,-0.091861,-0.099734,-0.099734,-0.09711,-0.091861,-0.091861,-0.089236,-0.091861,-0.089236,-0.094485,-0.086612,-0.094485,-0.094485,-0.094485,-0.094485,-0.076113,-0.086612,-0.081362,-0.09711,-0.099734,-0.09711,-0.099734,-0.091861,-0.10236,-0.099734,-0.09711,-0.083987,-0.081362,-0.089236,-0.081362,-0.068239,-0.083987,-0.076113,-0.089236,-0.076113,-0.068239,-0.076113,-0.076113,-0.073489,-0.070864,-0.070864,-0.083987,-0.068239,-0.078738,-0.073489,-0.068239,-0.083987,-0.073489,-0.068239,-0.078738,-0.089236,-0.089236,-0.078738,-0.089236,-0.083987,-0.068239,-0.081362,-0.086612,-0.078738,-0.068239,-0.081362,-0.065615,-0.078738,-0.076113,-0.089236,-0.091861,-0.078738,-0.076113,-0.089236,-0.086612,-0.089236,-0.10236,-0.094485,-0.11023,-0.094485,-0.089236,-0.089236,-0.09711,-0.099734,-0.09711,-0.09711,-0.11286,-0.10761,-0.10498,-0.094485,-0.10498,-0.11286,-0.10761,-0.10498,-0.099734,-0.09711,-0.11286,-0.11286,-0.11023,-0.11286,-0.11286,-0.11023,-0.11023,-0.11286,-0.11548,-0.11811,-0.11811,-0.11811,-0.12336,-0.11548,-0.12598,-0.11286,-0.10761,-0.10498,-0.086612,-0.073489,-0.073489,-0.076113,-0.06299,-0.044618,-0.047243,-0.044618,-0.047243,-0.052492,-0.055116,-0.036744,-0.039369,-0.031495,-0.015748,0.002625,-0.007874,0.002625,0.018372,0.010498,0.018372,0.007874,-0.007874,-0.018372,-0.031495,-0.031495,-0.03412,-0.039369,-0.057741,-0.057741,-0.047243,-0.044618,-0.052492,-0.081362,-0.099734,-0.11286,-0.12073,-0.13123,-0.13385,-0.14698,-0.1496,-0.14173,-0.14698,-0.1496,-0.1601,-0.16535,-0.16535,-0.15223,-0.1601,-0.16273,-0.17585,-0.1706,-0.16535,-0.16273,-0.16797,-0.16273,-0.16535,-0.16273,-0.16273,-0.16273,-0.14173,-0.1601,-0.18372,-0.17847,-0.18372,-0.17585,-0.17847,-0.16797,-0.15748,-0.1706,-0.16273,-0.16273,-0.15748,-0.1706,-0.16273,-0.1496,-0.16535,-0.16797,-0.1601,-0.15485,-0.16535,-0.14698,-0.14435,-0.14435,-0.1496,-0.14698,-0.15748,-0.1496,-0.15223,-0.14435,-0.14698,-0.14698,-0.1496,-0.14435,-0.14435,-0.14435,-0.14173,-0.14698,-0.15485,-0.1391,-0.15485,-0.15223,-0.1496,-0.12598,-0.11023,-0.070864,-0.026246,0.005249,-0.005249,-0.002625,0.031495,0.047243,0.076113,0.11023,0.17847,0.3202,0.49605,0.66927,0.77426,0.78475,0.73489,0.61678,0.38057,0.091861,-0.12073,-0.28346,-0.40681,-0.47243,-0.49867,-0.53279,-0.56691,-0.58266,-0.59578,-0.59053,-0.55379,-0.48292,-0.42256,-0.37269,-0.33332,-0.2887,-0.27558,-0.25459,-0.23096,-0.21784,-0.20472,-0.1601,-0.1286,-0.10498,-0.091861,-0.083987,-0.081362,-0.06299,-0.073489,-0.06299,-0.076113,-0.070864,-0.065615,-0.068239,-0.049867,-0.06299,-0.057741,-0.065615,-0.055116,-0.068239,-0.060366,-0.052492,-0.055116,-0.047243,-0.044618,-0.039369,-0.044618,-0.036744,-0.031495,-0.028871,-0.028871,-0.020997,-0.036744,-0.020997,-0.028871,-0.031495,-0.010498,-0.026246,-0.028871,-0.015748,-0.010498,-0.005249,-0.010498,-0.013123,-0.013123,0,0,0.007874,0.018372,0.013123,0.020997,0.036744,0.026246,0.03412,0.047243,0.052492,0.052492,0.068239,0.057741,0.06299,0.073489,0.094485,0.091861,0.10498,0.12073,0.1286,0.14435,0.15485,0.17322,0.18635,0.18897,0.20209,0.22309,0.23359,0.24934,0.25983,0.27558,0.29133,0.31495,0.32545,0.3412,0.35957,0.37269,0.38057,0.38057,0.40681,0.41469,0.42518,0.44356,0.45405,0.46193,0.47505,0.4803,0.4803,0.47505,0.4803,0.48555,0.48555,0.48817,0.48817,0.47243,0.47768,0.45668,0.45143,0.44618,0.41206,0.38844,0.37269,0.3412,0.32545,0.30445,0.28083,0.25721,0.23359,0.20734,0.18897,0.1601,0.1391,0.12073,0.11023,0.094485,0.068239,0.044618,0.041993,0.036744,0.018372,0.005249,-0.005249,-0.013123,-0.028871,-0.036744,-0.041993,-0.041993,-0.06299,-0.057741,-0.06299,-0.065615,-0.076113,-0.073489,-0.065615,-0.081362,-0.083987,-0.089236,-0.091861,-0.094485,-0.094485,-0.091861,-0.10498,-0.099734,-0.09711,-0.099734,-0.089236,-0.094485,-0.09711,-0.10236,-0.094485,-0.094485,-0.094485,-0.099734,-0.10236,-0.10498,-0.10761,-0.10761,-0.10498,-0.099734,-0.10236,-0.10236,-0.09711,-0.091861,-0.091861,-0.089236,-0.091861,-0.091861,-0.091861,-0.086612,-0.091861,-0.083987,-0.089236,-0.078738,-0.091861,-0.078738,-0.081362,-0.081362,-0.073489,-0.06299,-0.068239,-0.070864,-0.055116,-0.070864,-0.070864,-0.065615,-0.065615,-0.076113,-0.055116,-0.065615,-0.060366,-0.047243,-0.049867,-0.055116,-0.06299,-0.047243,-0.044618,-0.052492,-0.036744,-0.041993,-0.044618,-0.028871,-0.031495,-0.031495,-0.041993,-0.052492,-0.055116,-0.041993,-0.036744,-0.036744,-0.044618,-0.049867,-0.047243,-0.039369,-0.047243,-0.049867,-0.036744,-0.041993,-0.049867,-0.047243,-0.047243,-0.049867,-0.047243,-0.052492,-0.052492,-0.049867,-0.057741,-0.055116,-0.052492,-0.055116,-0.055116,-0.049867,-0.044618,-0.052492,-0.060366,-0.060366,-0.060366,-0.065615,-0.06299,-0.065615,-0.052492,-0.065615,-0.068239,-0.070864,-0.065615,-0.070864,-0.068239,-0.057741,-0.057741,-0.068239,-0.065615,-0.06299,-0.060366,-0.049867,-0.052492,-0.041993,-0.023621,-0.023621,-0.002625,0.005249,0.010498,0.015748,0.018372,0.013123,0.002625,0.005249,0.013123,0.005249,0.018372,0.023621,0.044618,0.047243,0.055116,0.049867,0.068239,0.055116,0.057741,0.041993,0.026246,0.031495,0.023621,0.007874,0.002625,0.020997,0.015748,0.002625,0.002625,0,-0.018372,-0.049867,-0.065615,-0.076113,-0.073489,-0.089236,-0.091861,-0.09711,-0.086612,-0.10236,-0.10498,-0.10236,-0.11548,-0.12073,-0.11548,-0.12073,-0.11023,-0.12073,-0.12336,-0.10761,-0.11286,-0.1286,-0.12598,-0.13123,-0.13123,-0.13385,-0.13385,-0.1286,-0.1286,-0.12598,-0.1286,-0.11811,-0.1286,-0.13385,-0.12073,-0.12073,-0.12598,-0.12598,-0.12598,-0.12598,-0.12598,-0.12073,-0.11811,-0.11811,-0.12073,-0.12336,-0.1286,-0.12598,-0.11548,-0.12073,-0.10236,-0.11286,-0.11286,-0.11811,-0.099734,-0.11023,-0.099734,-0.11811,-0.10761,-0.11286,-0.10761,-0.10761,-0.11023,-0.10498,-0.10498,-0.11811,-0.13123,-0.11548,-0.10236,-0.094485,-0.057741,0.002625,0.031495,0.047243,0.049867,0.065615,0.076113,0.12073,0.16273,0.21259,0.29395,0.42781,0.58791,0.75851,0.87661,0.87136,0.8005,0.62203,0.35169,0.060366,-0.16797,-0.33595,-0.43568,-0.47768,-0.51704,-0.55904,-0.59316,-0.59578,-0.58791,-0.55116,-0.48817,-0.43306,-0.37794,-0.32545,-0.27033,-0.25196,-0.22047,-0.20734,-0.17585,-0.1391,-0.12073,-0.09711,-0.089236,-0.081362,-0.078738,-0.065615,-0.057741,-0.068239,-0.065615,-0.060366,-0.057741,-0.060366,-0.041993,-0.039369,-0.039369,-0.039369,-0.049867,-0.031495,-0.026246,-0.039369,-0.028871,-0.026246,-0.023621,-0.023621,-0.03412,-0.028871,-0.020997,-0.013123,-0.023621,-0.015748,-0.018372,-0.013123,-0.010498,-0.015748,-0.020997,-0.002625,-0.010498,0.002625,0.007874,-0.002625,-0.005249,0.013123,0.015748,0.013123,0.015748,0.015748,0.013123,0.015748,0.018372,0.020997,0.036744,0.036744,0.039369,0.047243,0.060366,0.057741,0.065615,0.073489,0.073489,0.091861,0.10498,0.11548,0.11548,0.11811,0.12598,0.14435,0.15485,0.16273,0.16273,0.18372,0.19947,0.21522,0.23359,0.23621,0.25721,0.27558,0.29395,0.31233,0.32807,0.34645,0.35957,0.37269,0.38582,0.39894,0.40681,0.41469,0.43306,0.45405,0.44881,0.45668,0.47768,0.47243,0.47243,0.48555,0.4803,0.48292,0.48292,0.48292,0.4803,0.47505,0.4593,0.45143,0.45405,0.44093,0.41731,0.41469,0.38582,0.35957,0.33857,0.30183,0.29658,0.27821,0.25459,0.23096,0.20734,0.1811,0.16535,0.1496,0.1286,0.11023,0.094485,0.073489,0.060366,0.055116,0.03412,0.023621,0.010498,0.002625,-0.010498,-0.013123,-0.020997,-0.03412,-0.031495,-0.031495,-0.03412,-0.047243,-0.055116,-0.06299,-0.055116,-0.049867,-0.057741,-0.060366,-0.068239,-0.060366,-0.065615,-0.06299,-0.076113,-0.070864,-0.06299,-0.06299,-0.070864,-0.076113,-0.065615,-0.057741,-0.068239,-0.068239,-0.076113,-0.073489,-0.068239,-0.068239,-0.081362,-0.065615,-0.057741,-0.060366,-0.06299,-0.065615,-0.055116,-0.065615,-0.068239,-0.065615,-0.068239,-0.06299,-0.060366,-0.065615,-0.060366,-0.052492,-0.049867,-0.052492,-0.052492,-0.047243,-0.049867,-0.047243,-0.041993,-0.028871,-0.03412,-0.031495,-0.031495,-0.031495,-0.036744,-0.03412,-0.03412,-0.028871,-0.013123,-0.026246,-0.018372,-0.018372,-0.013123,-0.013123,-0.013123,-0.018372,-0.005249,-0.010498,0.002625,-0.005249,-0.007874,-0.005249,0.002625,0.002625,-0.007874,0.002625,0.007874,0,0.005249,0.010498,0.026246,0.002625,0.005249,0.018372,0.013123,0.002625,0.007874,0.007874,0.015748,0.015748,0,0.010498,0.007874,0.010498,0,0.018372,0.015748,0.018372,0.023621,0.013123,0.005249,0.002625,0.010498,0.005249,0.010498,0.018372,0.018372,0.007874,0.007874,0,0.002625,0.002625,0.010498,0.018372,0.007874,0.007874,0.007874,0.018372,0.015748,0.007874,0.010498,0.018372,0.005249,0.013123,0.010498,0.013123,0.010498,0.010498,0.013123,0.010498,0.005249,-0.002625,0.026246,0.018372,0.023621,0.018372,0.023621,0.010498,0.023621,0.03412,0.020997,0.015748,0.020997,0.020997,0.023621,0.020997,0.018372,0.028871,0.026246,0.023621,0.013123,0.015748,0.023621,0.023621,0.023621,0.03412,0.03412,0.052492,0.068239,0.083987,0.099734,0.11023,0.12073,0.1391,0.12598,0.1286,0.12598,0.11548,0.09711,0.11811,0.11023,0.12073,0.12336,0.14435,0.1391,0.1496,0.15223,0.15485,0.15485,0.15748,0.13385,0.13385,0.1286,0.11286,0.10498,0.11548,0.094485,0.094485,0.10236,0.10498,0.094485,0.081362,0.073489,0.070864,0.041993,0.028871,0.026246,0.018372,0.020997,0.015748,0.018372,0.023621,0.002625,0.013123,-0.002625,0.005249,-0.002625,0,0,-0.013123,0,-0.007874,-0.002625,-0.010498,-0.002625,-0.010498,-0.007874,-0.015748,0,-0.002625,0,0.007874,-0.007874,-0.013123,-0.002625,-0.010498,-0.007874,-0.005249,-0.002625,-0.007874,-0.007874,0.002625,-0.002625,-0.015748,0,0,0.005249,0.002625,0.007874,0.015748,0.007874,0.005249,0.013123,0.013123,0.010498,0.013123,0.005249,0.015748,0.013123,0.010498,0.020997,0.026246,0.020997,0.020997,0.026246,0.026246,0.020997,0.018372,0.028871,0.015748,0.020997,0.007874,0.026246,0.055116,0.086612,0.1391,0.16273,0.16797,0.16797,0.18372,0.22309,0.26246,0.31495,0.38057,0.4698,0.60628,0.811,1.0183,1.1338,1.1548,1.0682,0.85299,0.54592,0.21522,-0.057741,-0.22571,-0.31495,-0.35432,-0.41994,-0.47243,-0.50392,-0.49342,-0.4593,-0.41731,-0.35694,-0.27296,-0.22047,-0.16797,-0.1391,-0.11023,-0.073489,-0.044618,-0.005249,0.018372,0.036744,0.055116,0.052492,0.047243,0.047243,0.060366,0.055116,0.055116,0.057741,0.065615,0.073489,0.065615,0.076113,0.076113,0.076113,0.076113,0.086612,0.081362,0.083987,0.083987,0.094485,0.10498,0.094485,0.099734,0.10761,0.091861,0.10498,0.11286,0.10498,0.11811,0.11023,0.11811,0.11286,0.10498,0.11286,0.11811,0.12073,0.13123,0.13648,0.1286,0.13385,0.14698,0.13648,0.15748,0.16535,0.15223,0.15485,0.15485,0.16273,0.15485,0.16273,0.16273,0.17322,0.16797,0.18635,0.17585,0.18372,0.19422,0.20734,0.19947,0.21784,0.22571,0.22309,0.24146,0.24409,0.25721,0.27296,0.27033,0.2887,0.2992,0.31495,0.31758,0.33857,0.35957,0.35694,0.38057,0.40156,0.42256,0.42781,0.43568,0.45405,0.4698,0.4803,0.49867,0.51442,0.51967,0.53279,0.54592,0.55904,0.55641,0.56166,0.58003,0.58003,0.57741,0.58791,0.58528,0.59316,0.58266,0.58791,0.58003,0.56954,0.55379,0.54592,0.53017,0.52754,0.50655,0.48817,0.46718,0.43831,0.42256,0.39369,0.37269,0.35957,0.32807,0.31233,0.29133,0.26771,0.24146,0.22834,0.21784,0.19684,0.16535,0.15748,0.14698,0.12336,0.11286,0.10761,0.094485,0.086612,0.083987,0.081362,0.06299,0.06299,0.049867,0.041993,0.041993,0.036744,0.044618,0.026246,0.026246,0.028871,0.026246,0.023621,0.028871,0.018372,0.018372,0.018372,0.010498,0.020997,0.018372,0.023621,0.010498,0.007874,0.015748,0.020997,0.020997,0.013123,0.015748,0.013123,0.007874,0.013123,0.013123,0.020997,0.020997,0.007874,0.026246,0.026246,0.013123,0.018372,0.007874,0.018372,0.015748,0.013123,0.018372,0.018372,0.026246,0.026246,0.023621,0.018372,0.026246,0.028871,0.036744,0.036744,0.031495,0.036744,0.036744,0.031495,0.031495,0.026246,0.036744,0.03412,0.026246,0.039369,0.039369,0.031495,0.036744,0.031495,0.047243,0.031495,0.036744,0.044618,0.044618,0.039369,0.028871,0.039369,0.041993,0.036744,0.036744,0.036744,0.039369,0.039369,0.03412,0.023621,0.03412,0.03412,0.031495,0.031495,0.036744,0.03412,0.03412,0.023621,0.020997,0.023621,0.028871,0.026246,0.020997,0.018372,0.007874,0.018372,0.026246,0.013123,0.010498,0.010498,0.013123,0.013123,0.005249,0.005249,0.007874,0.007874,0.005249,0.010498,0.005249,0.002625,0.005249,0.007874,0.002625,-0.005249,-0.002625,0.002625,-0.007874,-0.010498,0,0.005249,-0.007874,-0.005249,-0.002625,-0.002625,-0.007874,-0.013123,-0.005249,-0.007874,-0.018372,-0.002625,-0.007874,-0.018372,0,-0.013123,-0.015748,-0.018372,-0.015748,-0.018372,-0.018372,-0.013123,-0.028871,-0.020997,-0.031495,-0.023621,-0.020997,-0.028871,-0.031495,-0.020997,-0.020997,-0.031495,-0.031495,-0.020997,-0.018372,-0.036744,-0.026246,-0.028871,-0.026246,-0.028871,-0.039369,-0.039369,-0.036744,-0.028871,-0.031495,-0.028871,-0.036744,-0.039369,-0.028871,-0.041993,-0.047243,-0.036744,-0.03412,-0.03412,-0.03412,-0.026246,-0.031495,-0.041993,-0.026246,-0.041993,-0.036744,-0.039369,-0.039369,-0.028871,-0.028871,-0.039369,-0.039369,-0.03412,-0.03412,-0.044618,-0.03412,-0.036744,-0.041993,-0.03412,-0.028871,-0.026246,-0.036744,-0.041993,-0.039369,-0.03412,-0.03412,-0.031495,-0.03412,-0.041993,-0.03412,-0.020997,-0.031495,-0.03412,-0.028871,-0.026246,-0.026246,-0.023621,-0.036744,-0.028871,-0.020997,-0.036744,-0.03412,-0.023621,-0.023621,-0.03412,-0.023621,-0.028871,-0.020997,-0.03412,-0.039369,-0.03412,-0.023621,-0.026246,-0.020997,-0.007874,0.013123,0.039369,0.047243,0.049867,0.06299,0.057741,0.052492,0.057741,0.044618,0.031495,0.049867,0.036744,0.031495,0.047243,0.057741,0.060366,0.055116,0.070864,0.068239,0.070864,0.073489,0.055116,0.060366,0.057741,0.036744,0.031495,0.039369,0.028871,0.023621,0.020997,0.020997,0.020997,0.023621,0.005249,-0.013123,-0.020997,-0.031495,-0.047243,-0.052492,-0.047243,-0.057741,-0.06299,-0.057741,-0.057741,-0.057741,-0.076113,-0.078738,-0.06299,-0.076113,-0.073489,-0.068239,-0.078738,-0.086612,-0.083987,-0.078738,-0.083987,-0.076113,-0.078738,-0.070864,-0.076113,-0.083987,-0.081362,-0.073489,-0.081362,-0.076113,-0.083987,-0.083987,-0.070864,-0.083987,-0.070864,-0.076113,-0.081362,-0.078738,-0.081362,-0.068239,-0.086612,-0.076113,-0.070864,-0.091861,-0.076113,-0.081362,-0.078738,-0.083987,-0.065615,-0.068239,-0.076113,-0.070864,-0.070864,-0.06299,-0.065615,-0.076113,-0.065615,-0.070864,-0.057741,-0.057741,-0.057741,-0.065615,-0.052492,-0.052492,-0.052492,-0.060366,-0.049867,-0.060366,-0.060366,-0.055116,-0.055116,-0.044618,-0.044618,-0.039369,-0.039369,-0.036744,-0.044618,-0.055116,-0.044618,-0.03412,-0.028871,0.005249,0.055116,0.086612,0.099734,0.10236,0.12336,0.15223,0.18372,0.23096,0.29133,0.35694,0.47243,0.65877,0.86349,1.0183,1.0656,1.0078,0.8215,0.55116,0.21522,-0.068239,-0.25721,-0.36219,-0.42518,-0.48292,-0.52754,-0.57741,-0.56166,-0.52754,-0.4908,-0.42781,-0.35694,-0.30183,-0.24934,-0.21522,-0.18635,-0.15485,-0.11811,-0.073489,-0.057741,-0.039369,-0.023621,-0.015748,-0.007874,-0.020997,-0.020997,-0.007874,-0.007874,-0.002625,0,0.002625,0.002625,0.005249,0.010498,0.007874,0.020997,0.010498,0.023621,0.031495,0.031495,0.015748,0.018372,0.015748,0.020997,0.026246,0.026246,0.03412,0.041993,0.041993,0.03412,0.036744,0.044618,0.049867,0.039369,0.041993,0.052492,0.041993,0.057741,0.047243,0.049867,0.055116,0.060366,0.065615,0.065615,0.070864,0.081362,0.06299,0.078738,0.083987,0.091861,0.078738,0.09711,0.099734,0.10498,0.11548,0.12073,0.12336,0.1286,0.1391,0.15485,0.15223,0.16535,0.1811,0.17847,0.19159,0.21259,0.20734,0.22309,0.24409,0.24671,0.26246,0.28083,0.29395,0.3097,0.3307,0.3412,0.34645,0.37007,0.38844,0.41206,0.41206,0.43043,0.45143,0.45668,0.48555,0.49605,0.49867,0.51967,0.53017,0.54329,0.54592,0.55904,0.55904,0.56429,0.57479,0.58003,0.58003,0.58791,0.58528,0.57479,0.57741,0.57216,0.55379,0.55379,0.53804,0.51967,0.50917,0.49605,0.47243,0.45143,0.42781,0.40156,0.38582,0.35957,0.33857,0.31233,0.29395,0.28608,0.26246,0.23359,0.22571,0.20209,0.19422,0.17322,0.16273,0.13385,0.13385,0.11286,0.10761,0.091861,0.076113,0.078738,0.070864,0.057741,0.068239,0.057741,0.052492,0.047243,0.044618,0.047243,0.03412,0.03412,0.028871,0.018372,0.023621,0.028871,0.020997,0.007874,0.002625,0.020997,0.007874,0.013123,0.005249,0.007874,0.002625,0,0.010498,0.002625,0.005249,0.007874,0.002625,0,-0.007874,0.002625,-0.002625,0.002625,0.007874,-0.007874,0.005249,0,0.002625,-0.010498,-0.002625,0.007874,0.007874,0.010498,0.007874,0,-0.005249,0.005249,0.002625,0.002625,0,0.007874,0.005249,0,0.002625,0.007874,0.007874,0,0.005249,0.002625,0.002625,-0.005249,0.007874,0,0.015748,0,0.002625,0.005249,0.015748,0.005249,0.007874,0.015748,0.018372,0.015748,0.013123,0.002625,-0.002625,0.007874,0.007874,0.005249,0.007874,0.007874,0.002625,0.005249,-0.002625,0,0.002625,0.002625,0.005249,0.002625,0.002625,0.005249,0.002625,0,-0.002625,-0.002625,-0.010498,0.007874,-0.010498,-0.010498,-0.002625,0.002625,-0.010498,-0.010498,-0.010498,-0.007874,-0.018372,-0.010498,-0.023621,-0.015748,-0.010498,-0.018372,-0.015748,-0.023621,-0.007874,-0.013123,-0.013123,-0.03412,-0.018372,-0.013123,-0.03412,-0.020997,-0.03412,-0.015748,-0.026246,-0.026246,-0.023621,-0.023621,-0.03412,-0.03412,-0.026246,-0.026246,-0.03412,-0.03412,-0.036744,-0.028871,-0.028871,-0.031495,-0.023621,-0.026246,-0.03412,-0.028871,-0.049867,-0.036744,-0.028871,-0.044618,-0.039369,-0.047243,-0.026246,-0.049867,-0.041993,-0.03412,-0.041993,-0.028871,-0.039369,-0.031495,-0.039369,-0.03412,-0.041993,-0.055116,-0.036744,-0.03412,-0.047243,-0.03412,-0.039369,-0.049867,-0.039369,-0.047243,-0.044618,-0.036744,-0.039369,-0.044618,-0.036744,-0.039369,-0.052492,-0.039369,-0.039369,-0.049867,-0.044618,-0.039369,-0.044618,-0.036744,-0.047243,-0.047243,-0.041993,-0.047243,-0.047243,-0.047243,-0.049867,-0.049867,-0.041993,-0.041993,-0.047243,-0.057741,-0.044618,-0.047243,-0.041993,-0.039369,-0.049867,-0.047243,-0.044618,-0.052492,-0.044618,-0.049867,-0.047243,-0.036744,-0.041993,-0.041993,-0.055116,-0.049867,-0.055116,-0.06299,-0.057741,-0.041993,-0.057741,-0.049867,-0.044618,-0.047243,-0.041993,-0.052492,-0.047243,-0.044618,-0.036744,-0.03412,-0.023621,-0.020997,-0.007874,0.013123,0.03412,0.031495,0.036744,0.047243,0.031495,0.026246,0.023621,0.026246,0.026246,0.015748,0.023621,0.039369,0.041993,0.047243,0.055116,0.052492,0.052492,0.070864,0.055116,0.044618,0.044618,0.041993,0.023621,0.018372,0.013123,0.010498,-0.002625,0.002625,0.005249,0.018372,0.002625,-0.013123,-0.018372,-0.031495,-0.052492,-0.057741,-0.06299,-0.057741,-0.065615,-0.081362,-0.083987,-0.078738,-0.078738,-0.089236,-0.089236,-0.078738,-0.094485,-0.094485,-0.089236,-0.091861,-0.091861,-0.09711,-0.091861,-0.099734,-0.10498,-0.091861,-0.094485,-0.089236,-0.086612,-0.086612,-0.091861,-0.10236,-0.094485,-0.10236,-0.10498,-0.09711,-0.094485,-0.089236,-0.10236,-0.086612,-0.094485,-0.091861,-0.10236,-0.089236,-0.094485,-0.091861,-0.094485,-0.091861,-0.091861,-0.091861,-0.09711,-0.091861,-0.091861,-0.083987,-0.086612,-0.083987,-0.086612,-0.086612,-0.083987,-0.073489,-0.086612,-0.091861,-0.086612,-0.094485,-0.089236,-0.078738,-0.081362,-0.086612,-0.086612,-0.073489,-0.086612,-0.081362,-0.083987,-0.078738,-0.073489,-0.078738,-0.073489,-0.065615,-0.06299,-0.070864,-0.060366,-0.057741,-0.070864,-0.073489,-0.073489,-0.073489,-0.060366,-0.036744,0.002625,0.044618,0.073489,0.076113,0.070864,0.089236,0.12073,0.16797,0.21522,0.27033,0.35694,0.50392,0.70339,0.89761,1.0078,1.0262,0.91073,0.70077,0.38844,0.083987,-0.16273,-0.32282,-0.40419,-0.44881,-0.4908,-0.55379,-0.58266,-0.56691,-0.54067,-0.4803,-0.41469,-0.36219,-0.3097,-0.27033,-0.23621,-0.20472,-0.17322,-0.12598,-0.09711,-0.076113,-0.065615,-0.044618,-0.047243,-0.041993,-0.041993,-0.047243,-0.039369,-0.031495,-0.03412,-0.028871,-0.020997,-0.013123,-0.018372,-0.010498,-0.010498,-0.015748,-0.018372,-0.020997,-0.020997,-0.013123,-0.010498,-0.005249,-0.002625,-0.020997,-0.010498,-0.002625,-0.007874,0.005249,0.007874,-0.005249,0.005249,0.015748,0.010498,0.015748,0.015748,0.023621,0.020997,0.020997,0.041993,0.03412,0.028871,0.03412,0.03412,0.03412,0.031495,0.047243,0.041993,0.052492,0.049867,0.052492,0.06299,0.055116,0.065615,0.083987,0.081362,0.086612,0.083987,0.09711,0.11548,0.11023,0.12598,0.1286,0.13123,0.14435,0.15223,0.16797,0.17322,0.18897,0.19684,0.21259,0.22571,0.23621,0.25196,0.26771,0.29133,0.29658,0.30445,0.32545,0.3412,0.35957,0.38319,0.40681,0.40944,0.41994,0.43568,0.46193,0.45668,0.48555,0.48817,0.49605,0.50917,0.52229,0.52492,0.52754,0.53279,0.54329,0.54329,0.54329,0.53542,0.53017,0.52754,0.51704,0.51442,0.50917,0.48292,0.47768,0.46193,0.45668,0.42518,0.40419,0.39106,0.36482,0.33332,0.3097,0.2887,0.25721,0.24146,0.22571,0.21259,0.20472,0.17585,0.16535,0.14173,0.12598,0.12073,0.099734,0.086612,0.068239,0.068239,0.049867,0.055116,0.041993,0.03412,0.028871,0.018372,0.013123,0.002625,0.007874,0,0,-0.007874,-0.002625,-0.015748,-0.020997,-0.015748,-0.023621,-0.03412,-0.015748,-0.023621,-0.03412,-0.036744,-0.026246,-0.031495,-0.026246,-0.026246,-0.023621,-0.026246,-0.031495,-0.03412,-0.036744,-0.028871,-0.039369,-0.036744,-0.041993,-0.031495,-0.041993,-0.036744,-0.031495,-0.044618,-0.041993,-0.036744,-0.049867,-0.041993,-0.041993,-0.047243,-0.036744,-0.036744,-0.039369,-0.028871,-0.031495,-0.036744,-0.039369,-0.03412,-0.028871,-0.026246,-0.03412,-0.044618,-0.044618,-0.036744,-0.044618,-0.026246,-0.03412,-0.036744,-0.044618,-0.039369,-0.026246,-0.031495,-0.03412,-0.020997,-0.023621,-0.026246,-0.026246,-0.028871,-0.031495,-0.031495,-0.020997,-0.023621,-0.023621,-0.031495,-0.028871,-0.023621,-0.020997,-0.03412,-0.039369,-0.018372,-0.036744,-0.036744,-0.03412,-0.031495,-0.041993,-0.039369,-0.031495,-0.03412,-0.028871,-0.028871,-0.036744,-0.041993,-0.041993,-0.036744,-0.03412,-0.044618,-0.044618,-0.036744,-0.044618,-0.047243,-0.057741,-0.044618,-0.041993,-0.049867,-0.060366,-0.047243,-0.039369,-0.052492,-0.041993,-0.047243,-0.052492,-0.057741,-0.057741,-0.055116,-0.060366,-0.070864,-0.057741,-0.065615,-0.068239,-0.06299,-0.057741,-0.060366,-0.060366,-0.055116,-0.060366,-0.057741,-0.068239,-0.06299,-0.06299,-0.073489,-0.073489,-0.065615,-0.073489,-0.073489,-0.070864,-0.065615,-0.076113,-0.065615,-0.060366,-0.055116,-0.065615,-0.076113,-0.073489,-0.076113,-0.076113,-0.081362,-0.078738,-0.073489,-0.081362,-0.065615,-0.073489,-0.070864,-0.060366,-0.057741,-0.070864,-0.073489,-0.081362,-0.076113,-0.078738,-0.09711,-0.078738,-0.081362,-0.081362,-0.089236,-0.083987,-0.078738,-0.083987,-0.083987,-0.086612,-0.09711,-0.083987,-0.076113,-0.073489,-0.086612,-0.094485,-0.081362,-0.078738,-0.078738,-0.083987,-0.076113,-0.094485,-0.083987,-0.091861,-0.094485,-0.091861,-0.083987,-0.086612,-0.091861,-0.083987,-0.078738,-0.083987,-0.076113,-0.078738,-0.065615,-0.06299,-0.068239,-0.044618,-0.036744,-0.031495,-0.013123,0.002625,0.005249,-0.002625,-0.007874,-0.010498,-0.018372,-0.018372,-0.007874,-0.018372,-0.031495,-0.002625,0.018372,0.010498,0.015748,0.020997,0.023621,0.036744,0.039369,0.031495,0.020997,0.018372,-0.002625,-0.028871,-0.026246,-0.023621,-0.044618,-0.047243,-0.015748,-0.023621,-0.026246,-0.036744,-0.047243,-0.057741,-0.073489,-0.078738,-0.083987,-0.099734,-0.09711,-0.091861,-0.09711,-0.099734,-0.11286,-0.11023,-0.10761,-0.11811,-0.12073,-0.11811,-0.1286,-0.12073,-0.13385,-0.12073,-0.12073,-0.1286,-0.11023,-0.12598,-0.12598,-0.13648,-0.1286,-0.11023,-0.12598,-0.13385,-0.11811,-0.12336,-0.13648,-0.13385,-0.14173,-0.1391,-0.14173,-0.13123,-0.12073,-0.13123,-0.12073,-0.11811,-0.11811,-0.12336,-0.11548,-0.11811,-0.11548,-0.11811,-0.11548,-0.11023,-0.12598,-0.12336,-0.11286,-0.10236,-0.11548,-0.12073,-0.10236,-0.11548,-0.11548,-0.099734,-0.099734,-0.099734,-0.11023,-0.10498,-0.11023,-0.10236,-0.09711,-0.10236,-0.10498,-0.099734,-0.09711,-0.094485,-0.099734,-0.09711,-0.081362,-0.091861,-0.081362,-0.094485,-0.10236,-0.11548,-0.11286,-0.11286,-0.086612,-0.052492,-0.005249,0.031495,0.052492,0.044618,0.055116,0.081362,0.09711,0.15485,0.20997,0.30708,0.47243,0.6509,0.8215,0.89499,0.88974,0.84249,0.66927,0.40156,0.11548,-0.11286,-0.27296,-0.37794,-0.43043,-0.46455,-0.50392,-0.53542,-0.55116,-0.55641,-0.51442,-0.46718,-0.39369,-0.33332,-0.29133,-0.25983,-0.22309,-0.21259,-0.20734,-0.16797,-0.14435,-0.10236,-0.076113,-0.060366,-0.052492,-0.052492,-0.044618,-0.052492,-0.023621,-0.039369,-0.039369,-0.036744,-0.03412,-0.031495,-0.015748,-0.03412,-0.018372,-0.007874,-0.018372,-0.015748,-0.015748,-0.002625,0.002625,0.007874,-0.002625,0.002625,0,0.002625,0.007874,0.015748,0.023621,0,0.002625,0.007874,0.007874,0.010498,0.020997,0.023621,0.026246,0.028871,0.023621,0.026246,0.03412,0.03412,0.041993,0.039369,0.047243,0.055116,0.041993,0.049867,0.065615,0.068239,0.068239,0.070864,0.073489,0.073489,0.086612,0.081362,0.083987,0.10236,0.10498,0.11286,0.1286,0.1391,0.1391,0.15485,0.16535,0.17847,0.19422,0.19684,0.19947,0.21522,0.22047,0.22834,0.25196,0.26771,0.28083,0.30445,0.32545,0.3412,0.35957,0.37794,0.38582,0.39631,0.42256,0.43043,0.44618,0.45668,0.46455,0.48555,0.50655,0.50655,0.52754,0.51704,0.51967,0.53279,0.53804,0.54592,0.53279,0.54067,0.53804,0.54067,0.53279,0.51967,0.51442,0.49342,0.48292,0.46718,0.44093,0.42256,0.40681,0.38582,0.37007,0.3412,0.3202,0.2887,0.27821,0.25196,0.23359,0.23096,0.20734,0.17322,0.17585,0.15485,0.13648,0.12336,0.10498,0.10236,0.083987,0.068239,0.057741,0.044618,0.049867,0.036744,0.028871,0.020997,0.018372,0.010498,-0.002625,-0.005249,0,-0.020997,-0.020997,-0.010498,-0.010498,-0.007874,-0.015748,-0.020997,-0.018372,-0.010498,-0.010498,-0.007874,-0.018372,-0.020997,-0.010498,-0.007874,-0.010498,-0.005249,-0.018372,-0.026246,-0.028871,-0.020997,-0.028871,-0.026246,-0.031495,-0.03412,-0.026246,-0.028871,-0.023621,-0.020997,-0.023621,-0.026246,-0.026246,-0.031495,-0.023621,-0.023621,-0.041993,-0.039369,-0.026246,-0.039369,-0.044618,-0.039369,-0.028871,-0.036744,-0.044618,-0.044618,-0.026246,-0.020997,-0.020997,-0.026246,-0.026246,-0.026246,-0.026246,-0.031495,-0.026246,-0.028871,-0.026246,-0.013123,-0.013123,-0.015748,-0.013123,-0.013123,-0.028871,-0.018372,-0.020997,-0.010498,-0.010498,-0.015748,-0.010498,-0.013123,-0.013123,-0.005249,-0.010498,-0.007874,-0.005249,-0.018372,-0.005249,-0.005249,-0.010498,-0.002625,-0.013123,-0.020997,-0.023621,-0.023621,-0.028871,-0.031495,-0.020997,-0.002625,-0.013123,-0.020997,-0.023621,-0.015748,-0.018372,-0.026246,-0.020997,-0.020997,-0.03412,-0.031495,-0.036744,-0.026246,-0.026246,-0.023621,-0.023621,-0.020997,-0.028871,-0.039369,-0.031495,-0.039369,-0.044618,-0.041993,-0.036744,-0.049867,-0.039369,-0.039369,-0.036744,-0.03412,-0.041993,-0.036744,-0.049867,-0.036744,-0.039369,-0.041993,-0.044618,-0.041993,-0.057741,-0.052492,-0.047243,-0.047243,-0.055116,-0.052492,-0.044618,-0.049867,-0.052492,-0.057741,-0.055116,-0.052492,-0.044618,-0.049867,-0.049867,-0.057741,-0.047243,-0.055116,-0.057741,-0.041993,-0.057741,-0.055116,-0.036744,-0.036744,-0.03412,-0.018372,0.002625,0.002625,0.010498,0.013123,0.018372,0.015748,0.028871,0.015748,0.013123,0.015748,0.018372,0.023621,0.039369,0.060366,0.052492,0.057741,0.057741,0.073489,0.06299,0.055116,0.044618,0.049867,0.041993,0.039369,0.020997,0.013123,0.007874,0.002625,-0.007874,0,0.002625,0,-0.020997,-0.031495,-0.049867,-0.057741,-0.065615,-0.073489,-0.065615,-0.081362,-0.089236,-0.086612,-0.078738,-0.094485,-0.091861,-0.094485,-0.099734,-0.09711,-0.091861,-0.094485,-0.11023,-0.11548,-0.099734,-0.09711,-0.11023,-0.10761,-0.10236,-0.11286,-0.09711,-0.099734,-0.09711,-0.10761,-0.09711,-0.10236,-0.10236,-0.09711,-0.099734,-0.09711,-0.099734,-0.10761,-0.10761,-0.10498,-0.09711,-0.11286,-0.094485,-0.094485,-0.094485,-0.099734,-0.11286,-0.11023,-0.09711,-0.09711,-0.099734,-0.089236,-0.091861,-0.083987,-0.073489,-0.078738,-0.076113,-0.083987,-0.078738,-0.081362,-0.086612,-0.091861,-0.086612,-0.073489,-0.081362,-0.070864,-0.078738,-0.083987,-0.073489,-0.06299,-0.070864,-0.073489,-0.06299,-0.065615,-0.060366,-0.078738,-0.091861,-0.083987,-0.094485,-0.089236,-0.068239,-0.018372,0.005249,0.031495,0.06299,0.065615,0.081362,0.091861,0.12336,0.14173,0.20472,0.29133,0.42518,0.58791,0.76638,0.86087,0.86611,0.79525,0.6404,0.38319,0.11023,-0.11023,-0.2887,-0.40419,-0.46718,-0.50917,-0.54329,-0.55904,-0.57216,-0.56166,-0.54067,-0.51704,-0.43568,-0.36744,-0.31758,-0.27558,-0.23621,-0.21784,-0.20734,-0.17585,-0.16273,-0.13123,-0.10498,-0.086612,-0.065615,-0.055116,-0.057741,-0.057741,-0.044618,-0.049867,-0.041993,-0.023621,-0.026246,-0.023621,-0.015748,-0.010498,-0.013123,-0.015748,-0.005249,-0.010498,0.002625,-0.002625,-0.010498,-0.007874,-0.002625,0.002625,0.007874,0.002625,0,0.005249,0.015748,0.013123,0.023621,0.026246,0.026246,0.028871,0.031495,0.023621,0.031495,0.044618,0.044618,0.039369,0.047243,0.049867,0.036744,0.041993,0.049867,0.055116,0.052492,0.068239,0.070864,0.06299,0.068239,0.070864,0.073489,0.089236,0.083987,0.091861,0.089236,0.09711,0.11023,0.11286,0.11548,0.12598,0.15485,0.1496,0.15748,0.15485,0.1706,0.19684,0.20472,0.21522,0.23096,0.23359,0.25721,0.28083,0.27558,0.29133,0.31495,0.33857,0.34645,0.36744,0.38057,0.40681,0.40944,0.43306,0.43568,0.45405,0.46193,0.47505,0.4803,0.4908,0.50392,0.51442,0.53017,0.53279,0.52754,0.52492,0.53542,0.52754,0.53017,0.50655,0.50917,0.49605,0.4908,0.45668,0.45405,0.43831,0.40944,0.38844,0.37007,0.33857,0.32282,0.29658,0.28608,0.25459,0.24146,0.22309,0.18635,0.17322,0.1496,0.12598,0.11548,0.09711,0.083987,0.065615,0.049867,0.044618,0.036744,0.023621,0.005249,-0.007874,-0.005249,-0.005249,-0.028871,-0.028871,-0.026246,-0.039369,-0.039369,-0.039369,-0.031495,-0.03412,-0.041993,-0.039369,-0.03412,-0.039369,-0.041993,-0.041993,-0.047243,-0.039369,-0.036744,-0.049867,-0.044618,-0.047243,-0.041993,-0.041993,-0.039369,-0.03412,-0.020997,-0.023621,-0.023621,0,-0.020997,-0.010498,-0.015748,-0.005249,-0.013123,-0.013123,-0.007874,-0.007874,0.002625,0.002625,0.005249,-0.002625,-0.005249,-0.005249,0,0.002625,-0.002625,0,-0.002625,0.007874,0.005249,0.005249,0,0,-0.002625,0.007874,0.002625,0.010498,0.007874,0.010498,0.002625,0.013123,0.007874,0.007874,0.015748,0.020997,0.031495,0.010498,0.018372,0.015748,0,0.002625,0.010498,0.007874,0.020997,0.03412,0.020997,0.023621,0.015748,0.018372,0.018372,0.026246,0.018372,0.020997,0.013123,0.005249,0.007874,0.013123,0.007874,0.005249,0.007874,0.010498,0.005249,0.002625,0.007874,-0.002625,0.005249,0.007874,-0.002625,-0.002625,-0.002625,-0.007874,-0.005249,-0.002625,-0.002625,0,-0.005249,-0.013123,-0.023621,-0.018372,-0.007874,-0.002625,-0.010498,-0.013123,-0.007874,-0.007874,-0.013123,-0.026246,-0.007874,-0.010498,-0.013123,-0.005249,-0.007874,-0.010498,-0.015748,-0.028871,-0.013123,-0.018372,-0.020997,-0.026246,-0.026246,-0.031495,-0.031495,-0.007874,-0.020997,-0.018372,-0.010498,-0.020997,-0.026246,-0.028871,-0.028871,-0.015748,-0.026246,-0.023621,-0.023621,-0.007874,-0.028871,-0.023621,-0.020997,-0.026246,-0.026246,-0.020997,-0.026246,-0.028871,-0.028871,-0.03412,-0.03412,-0.028871,-0.031495,-0.020997,-0.023621,-0.023621,-0.031495,-0.039369,-0.03412,-0.047243,-0.039369,-0.036744,-0.031495,-0.044618,-0.028871,-0.044618,-0.03412,-0.026246,-0.028871,-0.03412,-0.028871,-0.03412,-0.039369,-0.036744,-0.03412,-0.039369,-0.057741,-0.049867,-0.03412,-0.036744,-0.031495,-0.03412,-0.028871,-0.010498,0.007874,0.015748,0.031495,0.047243,0.055116,0.039369,0.052492,0.049867,0.041993,0.036744,0.044618,0.041993,0.044618,0.049867,0.068239,0.060366,0.055116,0.06299,0.078738,0.073489,0.060366,0.065615,0.055116,0.039369,0.041993,0.026246,0.015748,0.010498,0.007874,0.007874,0.020997,0.026246,0.013123,-0.007874,-0.013123,-0.020997,-0.023621,-0.039369,-0.041993,-0.049867,-0.047243,-0.057741,-0.052492,-0.06299,-0.073489,-0.068239,-0.070864,-0.078738,-0.073489,-0.078738,-0.083987,-0.089236,-0.083987,-0.076113,-0.076113,-0.070864,-0.081362,-0.078738,-0.073489,-0.089236,-0.091861,-0.089236,-0.078738,-0.089236,-0.091861,-0.078738,-0.078738,-0.081362,-0.081362,-0.091861,-0.086612,-0.089236,-0.078738,-0.089236,-0.083987,-0.076113,-0.086612,-0.076113,-0.076113,-0.081362,-0.078738,-0.083987,-0.076113,-0.086612,-0.081362,-0.073489,-0.086612,-0.078738,-0.078738,-0.078738,-0.081362,-0.070864,-0.073489,-0.076113,-0.078738,-0.086612,-0.076113,-0.070864,-0.068239,-0.065615,-0.073489,-0.073489,-0.070864,-0.070864,-0.078738,-0.06299,-0.057741,-0.068239,-0.057741,-0.06299,-0.068239,-0.073489,-0.078738,-0.081362,-0.078738,-0.078738,-0.073489,-0.055116,0.002625,0.020997,0.068239,0.076113,0.086612,0.10498,0.1391,0.17847,0.22309,0.2887,0.39894,0.54592,0.73751,0.86087,0.93436,0.92911,0.81625,0.57216,0.25983,-0.028871,-0.26246,-0.41206,-0.47505,-0.51179,-0.55116,-0.57741,-0.60103,-0.59316,-0.55641,-0.51179,-0.43831,-0.37007,-0.30708,-0.26508,-0.23884,-0.20734,-0.19422,-0.16273,-0.1286,-0.089236,-0.070864,-0.047243,-0.036744,-0.039369,-0.036744,-0.031495,-0.020997,-0.028871,-0.023621,-0.020997,-0.015748,-0.007874,-0.010498,-0.002625,-0.007874,-0.010498,-0.005249,-0.015748,-0.007874,-0.013123,-0.010498,-0.007874,-0.002625,0,-0.002625,-0.002625,0,0.010498,0.018372,0.013123,0.007874,0.010498,0.010498,0.010498,0.007874,0.018372,0.018372,0.015748,0.023621,0.023621,0.036744,0.028871,0.044618,0.03412,0.03412,0.03412,0.047243,0.039369,0.036744,0.052492,0.055116,0.047243,0.068239,0.073489,0.073489,0.070864,0.078738,0.083987,0.09711,0.10761,0.11548,0.11811,0.12336,0.13648,0.14435,0.1601,0.17847,0.17322,0.19947,0.20472,0.20997,0.22309,0.24671,0.24671,0.27296,0.2992,0.2992,0.3097,0.33595,0.35694,0.37007,0.38319,0.39894,0.41994,0.42781,0.43831,0.45143,0.4698,0.4803,0.49342,0.49867,0.50392,0.51704,0.51967,0.51442,0.51967,0.51967,0.52229,0.53542,0.52229,0.51179,0.50917,0.50392,0.4908,0.4803,0.46193,0.43306,0.41994,0.40944,0.37794,0.36219,0.33857,0.31233,0.29658,0.27296,0.26246,0.23621,0.21784,0.19947,0.18897,0.15748,0.14698,0.13385,0.11023,0.10498,0.089236,0.076113,0.073489,0.060366,0.047243,0.03412,0.03412,0.026246,0.013123,0.015748,0.013123,0.005249,0,0.002625,0,-0.005249,0.005249,-0.007874,-0.010498,-0.015748,-0.013123,-0.026246,-0.015748,-0.015748,-0.031495,-0.018372,-0.018372,-0.020997,-0.013123,-0.020997,-0.023621,-0.028871,-0.020997,-0.020997,-0.028871,-0.03412,-0.031495,-0.026246,-0.023621,-0.028871,-0.026246,-0.036744,-0.031495,-0.028871,-0.026246,-0.026246,-0.028871,-0.020997,-0.026246,-0.020997,-0.020997,-0.026246,-0.026246,-0.026246,-0.010498,-0.031495,-0.023621,-0.020997,-0.026246,-0.023621,-0.020997,-0.015748,-0.023621,-0.023621,-0.015748,-0.007874,-0.018372,-0.015748,-0.023621,-0.015748,-0.018372,-0.002625,-0.018372,-0.013123,-0.018372,-0.010498,-0.007874,-0.010498,-0.013123,-0.013123,-0.018372,0.002625,-0.005249,-0.002625,-0.010498,-0.005249,-0.005249,-0.013123,-0.002625,-0.007874,-0.010498,-0.020997,-0.015748,-0.010498,-0.005249,-0.013123,-0.010498,-0.015748,-0.015748,-0.013123,-0.015748,-0.013123,-0.020997,-0.023621,-0.020997,-0.031495,-0.03412,-0.020997,-0.028871,-0.026246,-0.023621,-0.036744,-0.026246,-0.020997,-0.020997,-0.020997,-0.03412,-0.036744,-0.03412,-0.036744,-0.03412,-0.031495,-0.03412,-0.036744,-0.03412,-0.031495,-0.036744,-0.041993,-0.044618,-0.026246,-0.039369,-0.044618,-0.041993,-0.039369,-0.03412,-0.047243,-0.036744,-0.041993,-0.044618,-0.041993,-0.041993,-0.049867,-0.060366,-0.049867,-0.039369,-0.041993,-0.044618,-0.044618,-0.047243,-0.044618,-0.039369,-0.03412,-0.03412,-0.049867,-0.044618,-0.047243,-0.055116,-0.055116,-0.055116,-0.039369,-0.052492,-0.052492,-0.060366,-0.044618,-0.057741,-0.055116,-0.049867,-0.041993,-0.041993,-0.057741,-0.049867,-0.049867,-0.049867,-0.044618,-0.041993,-0.055116,-0.049867,-0.060366,-0.055116,-0.041993,-0.055116,-0.052492,-0.041993,-0.055116,-0.060366,-0.049867,-0.049867,-0.049867,-0.044618,-0.057741,-0.052492,-0.049867,-0.044618,-0.055116,-0.041993,-0.047243,-0.052492,-0.049867,-0.047243,-0.047243,-0.047243,-0.049867,-0.049867,-0.044618,-0.055116,-0.055116,-0.044618,-0.044618,-0.047243,-0.047243,-0.052492,-0.049867,-0.041993,-0.044618,-0.049867,-0.049867,-0.052492,-0.049867,-0.052492,-0.044618,-0.041993,-0.044618,-0.039369,-0.036744,-0.007874,0,0.018372,0.023621,0.049867,0.049867,0.039369,0.044618,0.039369,0.03412,0.020997,0.041993,0.031495,0.036744,0.041993,0.041993,0.055116,0.055116,0.060366,0.060366,0.060366,0.065615,0.052492,0.055116,0.052492,0.03412,0.031495,0.018372,0.015748,0.010498,0.013123,0.020997,0.015748,0.010498,-0.007874,-0.018372,-0.018372,-0.026246,-0.047243,-0.039369,-0.039369,-0.047243,-0.041993,-0.057741,-0.049867,-0.060366,-0.070864,-0.076113,-0.073489,-0.076113,-0.070864,-0.078738,-0.078738,-0.073489,-0.073489,-0.076113,-0.083987,-0.083987,-0.076113,-0.076113,-0.089236,-0.076113,-0.083987,-0.086612,-0.081362,-0.083987,-0.070864,-0.068239,-0.081362,-0.086612,-0.083987,-0.083987,-0.076113,-0.073489,-0.081362,-0.076113,-0.068239,-0.081362,-0.073489,-0.070864,-0.076113,-0.078738,-0.089236,-0.081362,-0.081362,-0.073489,-0.070864,-0.076113,-0.065615,-0.073489,-0.070864,-0.065615,-0.070864,-0.070864,-0.065615,-0.060366,-0.06299,-0.060366,-0.055116,-0.055116,-0.052492,-0.055116,-0.044618,-0.057741,-0.060366,-0.060366,-0.041993,-0.055116,-0.055116,-0.052492,-0.047243,-0.044618,-0.052492,-0.047243,-0.052492,-0.055116,-0.052492,-0.055116,-0.057741,-0.044618,0.005249,0.047243,0.091861,0.10761,0.11548,0.13648,0.1496,0.21259,0.26771,0.3307,0.40681,0.53279,0.72176,0.91073,1.042,1.0656,0.9816,0.76113,0.45143,0.1286,-0.1496,-0.33595,-0.42256,-0.4698,-0.51704,-0.55904,-0.59578,-0.58266,-0.53017,-0.48292,-0.41731,-0.34382,-0.29133,-0.24934,-0.21522,-0.18897,-0.15485,-0.12073,-0.083987,-0.068239,-0.041993,-0.026246,-0.031495,-0.020997,-0.015748,-0.007874,-0.013123,0,0.002625,-0.005249,0.002625,0.010498,0.007874,0.013123,0.015748,0.010498,0.002625,0.013123,0.026246,0.020997,0.03412,0.026246,0.020997,0.026246,0.039369,0.028871,0.03412,0.031495,0.039369,0.047243,0.039369,0.039369,0.03412,0.044618,0.041993,0.057741,0.047243,0.047243,0.06299,0.06299,0.065615,0.06299,0.065615,0.068239,0.052492,0.083987,0.083987,0.076113,0.091861,0.09711,0.091861,0.094485,0.099734,0.10761,0.11023,0.11548,0.12073,0.13648,0.12336,0.14173,0.15223,0.1496,0.1601,0.17585,0.1811,0.19422,0.20997,0.21259,0.22834,0.23621,0.24671,0.25983,0.29133,0.2992,0.31495,0.3202,0.33857,0.35432,0.37532,0.38582,0.40944,0.42781,0.44356,0.4593,0.4698,0.48555,0.49867,0.52492,0.52754,0.53542,0.54592,0.55116,0.56954,0.57741,0.57741,0.58791,0.57216,0.59053,0.58266,0.57479,0.58266,0.57741,0.55641,0.55116,0.55379,0.53279,0.50917,0.5013,0.48292,0.4593,0.44093,0.41469,0.39369,0.37532,0.34382,0.3202,0.30445,0.2992,0.27296,0.24409,0.21784,0.21522,0.19947,0.1706,0.16797,0.14173,0.13648,0.12336,0.11811,0.11023,0.094485,0.078738,0.073489,0.078738,0.060366,0.049867,0.036744,0.047243,0.03412,0.041993,0.039369,0.023621,0.031495,0.031495,0.018372,0.03412,0.028871,0.015748,0.028871,0.031495,0.020997,0.026246,0.018372,0.013123,0.013123,0.013123,0.010498,0.013123,0.007874,0.013123,0.005249,0.010498,0.002625,0,0.015748,0.005249,0.010498,0.013123,0.015748,0.013123,0.002625,0.018372,0.015748,0.015748,0.005249,0.013123,0.013123,0.018372,0.007874,0.010498,0.015748,0.023621,0.007874,0.018372,0.015748,0.013123,0.023621,0.020997,0.013123,0.020997,0.020997,0.028871,0.018372,0.020997,0.013123,0.015748,0.015748,0.026246,0.026246,0.026246,0.018372,0.020997,0.018372,0.015748,0.018372,0.023621,0.007874,0.03412,0.026246,0.020997,0.026246,0.018372,0.026246,0.023621,0.015748,0.026246,0.023621,0.020997,0.018372,0.023621,0.026246,0.020997,0.020997,0.018372,0.015748,0.013123,0.007874,0.018372,0.015748,0.015748,0.015748,0.010498,0.002625,0.013123,0.013123,0.005249,0,-0.002625,0.002625,0.007874,0.010498,0,-0.005249,-0.010498,-0.005249,-0.002625,-0.002625,0,0,-0.013123,0.002625,0,-0.007874,-0.010498,-0.010498,0.002625,-0.010498,-0.015748,-0.007874,-0.013123,-0.015748,-0.015748,-0.015748,-0.018372,-0.018372,-0.015748,-0.005249,-0.007874,-0.015748,-0.013123,-0.028871,-0.018372,-0.023621,-0.023621,-0.010498,-0.015748,-0.020997,-0.020997,-0.018372,-0.020997,-0.015748,-0.018372,-0.015748,-0.015748,-0.023621,-0.023621,-0.026246,-0.023621,-0.026246,-0.026246,-0.023621,-0.018372,-0.020997,-0.015748,-0.026246,-0.018372,-0.015748,-0.020997,-0.028871,-0.026246,-0.023621,-0.03412,-0.028871,-0.020997,-0.013123,-0.028871,-0.028871,-0.041993,-0.020997,-0.03412,-0.031495,-0.03412,-0.031495,-0.026246,-0.026246,-0.031495,-0.031495,-0.028871,-0.020997,-0.031495,-0.013123,-0.020997,-0.031495,-0.036744,-0.031495,-0.026246,-0.028871,-0.031495,-0.031495,-0.028871,-0.026246,-0.03412,-0.028871,-0.020997,-0.03412,-0.028871,-0.028871,-0.026246,-0.023621,-0.015748,-0.028871,-0.028871,-0.026246,-0.028871,-0.026246,-0.036744,-0.031495,-0.026246,-0.03412,-0.015748,-0.026246,-0.028871,-0.020997,-0.010498,-0.03412,-0.028871,-0.020997,-0.026246,-0.028871,-0.026246,-0.020997,-0.031495,-0.031495,-0.015748,-0.031495,-0.03412,-0.023621,-0.026246,-0.026246,-0.028871,-0.023621,-0.031495,-0.036744,-0.031495,-0.031495,-0.03412,-0.026246,-0.015748,-0.023621,-0.028871,-0.028871,-0.026246,-0.020997,-0.028871,-0.010498,-0.005249,0.015748,0.03412,0.036744,0.049867,0.065615,0.06299,0.06299,0.060366,0.052492,0.055116,0.041993,0.039369,0.041993,0.047243,0.057741,0.076113,0.076113,0.068239,0.065615,0.073489,0.076113,0.083987,0.070864,0.060366,0.052492,0.03412,0.039369,0.036744,0.026246,0.015748,0.026246,0.026246,0.023621,0.002625,0.005249,-0.015748,-0.020997,-0.039369,-0.044618,-0.049867,-0.052492,-0.049867,-0.055116,-0.041993,-0.055116,-0.06299,-0.070864,-0.065615,-0.070864,-0.083987,-0.068239,-0.057741,-0.073489,-0.070864,-0.083987,-0.078738,-0.076113,-0.076113,-0.068239,-0.089236,-0.076113,-0.073489,-0.078738,-0.083987,-0.078738,-0.083987,-0.078738,-0.086612,-0.078738,-0.086612,-0.078738,-0.078738,-0.078738,-0.073489,-0.070864,-0.078738,-0.060366,-0.057741,-0.078738,-0.073489,-0.06299,-0.057741,-0.06299,-0.070864,-0.065615,-0.065615,-0.065615,-0.060366,-0.049867,-0.047243,-0.052492,-0.055116,-0.041993,-0.039369,-0.047243,-0.036744,-0.036744,-0.044618,-0.047243,-0.052492,-0.039369,-0.036744,-0.049867,-0.03412,-0.039369,-0.044618,-0.044618,-0.036744,-0.039369,-0.03412,-0.039369,-0.031495,-0.03412,-0.047243,-0.049867,-0.052492,-0.044618,-0.039369,-0.002625,0.031495,0.065615,0.083987,0.10761,0.091861,0.13123,0.1706,0.21522,0.26508,0.33332,0.44093,0.58791,0.80312,0.98422,1.0656,1.0367,0.90548,0.63778,0.31758,0.013123,-0.22309,-0.35432,-0.42518,-0.46455,-0.50655,-0.54854,-0.56954,-0.53804,-0.49342,-0.44356,-0.38057,-0.30708,-0.26771,-0.22309,-0.20734,-0.16797,-0.12598,-0.09711,-0.065615,-0.039369,-0.018372,-0.026246,-0.018372,-0.010498,-0.023621,-0.013123,0.002625,-0.005249,0.005249,0.007874,0.010498,0.010498,0.018372,0.007874,0.010498,0.015748,0.036744,0.026246,0.026246,0.026246,0.036744,0.036744,0.03412,0.044618,0.039369,0.036744,0.036744,0.041993,0.049867,0.055116,0.057741,0.060366,0.057741,0.055116,0.060366,0.065615,0.06299,0.068239,0.076113,0.070864,0.089236,0.076113,0.081362,0.099734,0.09711,0.094485,0.10498,0.10761,0.11023,0.11548,0.11023,0.11023,0.13385,0.13385,0.13385,0.15223,0.1601,0.1601,0.1706,0.17585,0.17847,0.19159,0.20209,0.20472,0.20997,0.23884,0.23884,0.23884,0.26508,0.27821,0.2887,0.30183,0.30708,0.3202,0.34382,0.35694,0.36482,0.38582,0.39631,0.42518,0.43043,0.43831,0.4593,0.47505,0.49342,0.50392,0.51442,0.51442,0.53542,0.55379,0.55116,0.56166,0.57479,0.58266,0.57479,0.57741,0.58003,0.58791,0.58791,0.57479,0.58266,0.57479,0.56691,0.55641,0.54592,0.52754,0.51704,0.5013,0.47768,0.46193,0.44618,0.41469,0.38844,0.36744,0.35169,0.33595,0.31233,0.28083,0.26771,0.24934,0.22571,0.20472,0.19947,0.1601,0.16273,0.14435,0.12073,0.10761,0.10761,0.099734,0.078738,0.073489,0.068239,0.057741,0.047243,0.036744,0.044618,0.044618,0.015748,0.03412,0.036744,0.020997,0.023621,0.026246,0.015748,0.018372,0.018372,0.002625,0.013123,0.020997,0.015748,0.005249,0.015748,0.005249,0.005249,0.005249,0.005249,0,0.002625,0.007874,0.002625,-0.010498,0.005249,0.007874,0.005249,-0.007874,-0.002625,0.013123,0.002625,0.002625,-0.002625,0.005249,0.002625,0.005249,0,0.002625,0.005249,0,0.005249,0.002625,0.002625,0.002625,0,0.002625,0,0.005249,-0.002625,0,0.007874,0.005249,0.002625,0.005249,0.002625,0,-0.002625,0.002625,0.013123,0,0.007874,0.002625,0.005249,0.002625,0.005249,0.005249,0.010498,-0.002625,0.005249,0.002625,0.005249,0.005249,-0.002625,0,0.010498,0.007874,0.005249,0.005249,-0.005249,0.013123,-0.002625,0.002625,0.002625,-0.002625,-0.002625,0.002625,-0.002625,-0.013123,-0.002625,-0.005249,-0.010498,-0.010498,-0.010498,-0.007874,-0.005249,-0.002625,-0.010498,-0.002625,-0.013123,-0.018372,-0.018372,-0.020997,-0.018372,-0.023621,-0.018372,-0.020997,-0.020997,-0.018372,-0.023621,-0.020997,-0.020997,-0.018372,-0.039369,-0.010498,-0.018372,-0.031495,-0.031495,-0.018372,-0.020997,-0.023621,-0.028871,-0.031495,-0.023621,-0.026246,-0.039369,-0.036744,-0.028871,-0.028871,-0.026246,-0.028871,-0.039369,-0.031495,-0.039369,-0.028871,-0.031495,-0.03412,-0.041993,-0.031495,-0.047243,-0.041993,-0.036744,-0.039369,-0.041993,-0.044618,-0.041993,-0.03412,-0.031495,-0.028871,-0.041993,-0.041993,-0.041993,-0.028871,-0.047243,-0.047243,-0.036744,-0.036744,-0.03412,-0.039369,-0.03412,-0.039369,-0.044618,-0.047243,-0.047243,-0.039369,-0.049867,-0.044618,-0.041993,-0.03412,-0.041993,-0.055116,-0.041993,-0.036744,-0.036744,-0.03412,-0.047243,-0.036744,-0.028871,-0.039369,-0.044618,-0.047243,-0.039369,-0.036744,-0.044618,-0.044618,-0.036744,-0.041993,-0.052492,-0.047243,-0.047243,-0.049867,-0.044618,-0.041993,-0.049867,-0.039369,-0.036744,-0.044618,-0.047243,-0.055116,-0.047243,-0.049867,-0.044618,-0.041993,-0.049867,-0.055116,-0.055116,-0.047243,-0.047243,-0.041993,-0.052492,-0.055116,-0.052492,-0.047243,-0.060366,-0.055116,-0.052492,-0.052492,-0.03412,-0.03412,-0.049867,-0.052492,-0.044618,-0.044618,-0.041993,-0.049867,-0.044618,-0.044618,-0.044618,-0.039369,-0.052492,-0.047243,-0.036744,-0.041993,-0.049867,-0.044618,-0.044618,-0.041993,-0.047243,-0.020997,-0.028871,-0.010498,0,0.015748,0.020997,0.039369,0.047243,0.047243,0.03412,0.036744,0.036744,0.020997,0.039369,0.026246,0.03412,0.03412,0.060366,0.044618,0.047243,0.047243,0.047243,0.068239,0.06299,0.047243,0.044618,0.052492,0.041993,0.026246,0.018372,0.020997,0.010498,0.007874,0.015748,0.010498,0.002625,-0.010498,-0.015748,-0.028871,-0.047243,-0.060366,-0.06299,-0.057741,-0.073489,-0.068239,-0.060366,-0.081362,-0.078738,-0.078738,-0.086612,-0.091861,-0.078738,-0.094485,-0.089236,-0.083987,-0.083987,-0.089236,-0.086612,-0.091861,-0.091861,-0.083987,-0.089236,-0.094485,-0.086612,-0.086612,-0.089236,-0.09711,-0.083987,-0.083987,-0.086612,-0.089236,-0.089236,-0.083987,-0.089236,-0.09711,-0.089236,-0.089236,-0.089236,-0.083987,-0.09711,-0.09711,-0.10236,-0.091861,-0.083987,-0.086612,-0.089236,-0.091861,-0.081362,-0.089236,-0.078738,-0.083987,-0.083987,-0.076113,-0.078738,-0.06299,-0.068239,-0.065615,-0.06299,-0.060366,-0.060366,-0.057741,-0.055116,-0.055116,-0.047243,-0.049867,-0.049867,-0.052492,-0.041993,-0.049867,-0.049867,-0.055116,-0.068239,-0.055116,-0.065615,-0.057741,-0.036744,0.018372,0.044618,0.068239,0.078738,0.076113,0.083987,0.12336,0.17847,0.22309,0.29395,0.40156,0.58266,0.77426,0.94223,1.0183,1.0157,0.87924,0.6194,0.2992,0.013123,-0.20997,-0.34382,-0.40156,-0.44618,-0.51179,-0.55379,-0.56429,-0.55379,-0.53279,-0.47768,-0.40419,-0.33332,-0.27821,-0.23621,-0.20997,-0.18897,-0.1496,-0.12073,-0.099734,-0.068239,-0.047243,-0.036744,-0.039369,-0.031495,-0.026246,-0.031495,-0.015748,-0.018372,-0.005249,-0.007874,-0.010498,-0.005249,-0.005249,-0.005249,-0.002625,-0.005249,0,0,0.002625,0.005249,0.010498,0.010498,0.010498,0.020997,0.020997,0.013123,0.018372,0.020997,0.028871,0.023621,0.028871,0.028871,0.026246,0.028871,0.036744,0.03412,0.028871,0.036744,0.044618,0.036744,0.036744,0.044618,0.044618,0.060366,0.065615,0.073489,0.060366,0.078738,0.073489,0.060366,0.068239,0.078738,0.091861,0.086612,0.099734,0.10761,0.10498,0.12598,0.13123,0.13123,0.13648,0.1496,0.16273,0.16535,0.17322,0.19684,0.19947,0.20209,0.22047,0.22834,0.25196,0.26246,0.27558,0.28608,0.3097,0.3307,0.3307,0.34382,0.36219,0.37794,0.39631,0.40419,0.42256,0.43831,0.44093,0.46718,0.47768,0.4908,0.49605,0.50392,0.52492,0.53804,0.54067,0.54854,0.55904,0.55904,0.56429,0.57741,0.56954,0.56166,0.55379,0.55379,0.54592,0.52492,0.52229,0.51442,0.4908,0.48817,0.47243,0.44881,0.42518,0.39369,0.37532,0.35694,0.33595,0.31758,0.29395,0.27033,0.25983,0.23884,0.20997,0.19159,0.17847,0.15748,0.13385,0.11286,0.10236,0.10761,0.083987,0.06299,0.057741,0.047243,0.039369,0.041993,0.039369,0.03412,0.018372,0.013123,0.010498,0.010498,0.002625,-0.002625,0,0.002625,-0.005249,0,0.002625,-0.010498,-0.018372,-0.005249,-0.007874,-0.018372,-0.018372,-0.018372,-0.020997,-0.018372,-0.023621,-0.018372,-0.015748,-0.026246,-0.020997,-0.023621,-0.028871,-0.020997,-0.023621,-0.031495,-0.018372,-0.020997,-0.018372,-0.028871,-0.036744,-0.031495,-0.036744,-0.031495,-0.03412,-0.028871,-0.023621,-0.03412,-0.023621,-0.026246,-0.028871,-0.013123,-0.023621,-0.026246,-0.018372,-0.028871,-0.015748,-0.018372,-0.026246,-0.020997,-0.026246,-0.023621,-0.023621,-0.023621,-0.023621,-0.018372,-0.018372,-0.026246,-0.020997,-0.026246,-0.020997,-0.010498,-0.015748,-0.020997,-0.020997,-0.023621,-0.018372,-0.013123,-0.020997,-0.005249,-0.026246,-0.028871,-0.020997,-0.015748,-0.023621,-0.013123,-0.013123,-0.026246,-0.020997,-0.026246,-0.023621,-0.026246,-0.020997,-0.015748,-0.013123,-0.031495,-0.020997,-0.026246,-0.020997,-0.031495,-0.031495,-0.03412,-0.044618,-0.047243,-0.028871,-0.031495,-0.03412,-0.039369,-0.047243,-0.041993,-0.036744,-0.044618,-0.039369,-0.055116,-0.055116,-0.044618,-0.041993,-0.055116,-0.039369,-0.044618,-0.049867,-0.047243,-0.055116,-0.052492,-0.055116,-0.055116,-0.052492,-0.060366,-0.060366,-0.057741,-0.057741,-0.052492,-0.065615,-0.073489,-0.068239,-0.060366,-0.065615,-0.070864,-0.060366,-0.076113,-0.06299,-0.070864,-0.06299,-0.057741,-0.073489,-0.070864,-0.057741,-0.065615,-0.078738,-0.078738,-0.068239,-0.06299,-0.06299,-0.068239,-0.073489,-0.068239,-0.076113,-0.070864,-0.076113,-0.083987,-0.073489,-0.076113,-0.073489,-0.076113,-0.076113,-0.065615,-0.078738,-0.086612,-0.068239,-0.081362,-0.081362,-0.078738,-0.081362,-0.073489,-0.081362,-0.083987,-0.068239,-0.073489,-0.086612,-0.081362,-0.073489,-0.076113,-0.086612,-0.076113,-0.073489,-0.068239,-0.073489,-0.091861,-0.076113,-0.081362,-0.089236,-0.076113,-0.076113,-0.073489,-0.065615,-0.070864,-0.060366,-0.060366,-0.065615,-0.065615,-0.044618,-0.03412,-0.028871,-0.010498,-0.007874,0.013123,0,-0.002625,-0.002625,-0.010498,-0.020997,-0.023621,-0.005249,0.007874,0.013123,0.026246,0.023621,0.026246,0.028871,0.041993,0.047243,0.026246,0.023621,0.028871,0.007874,0.005249,0,-0.007874,-0.018372,-0.023621,-0.026246,-0.015748,-0.005249,-0.028871,-0.047243,-0.052492,-0.057741,-0.068239,-0.068239,-0.081362,-0.083987,-0.094485,-0.091861,-0.11286,-0.10236,-0.11286,-0.10761,-0.10761,-0.11286,-0.11023,-0.10761,-0.11286,-0.11023,-0.11023,-0.11023,-0.11548,-0.12073,-0.13385,-0.12073,-0.11811,-0.12073,-0.10498,-0.12073,-0.10498,-0.11548,-0.10761,-0.11548,-0.12336,-0.12598,-0.12336,-0.11286,-0.12336,-0.11023,-0.11286,-0.11286,-0.11548,-0.12073,-0.12073,-0.11811,-0.12336,-0.12336,-0.12073,-0.11811,-0.12336,-0.11548,-0.12336,-0.10761,-0.10498,-0.11023,-0.11023,-0.11023,-0.10761,-0.11023,-0.094485,-0.10236,-0.10236,-0.10498,-0.11286,-0.10761,-0.11548,-0.10236,-0.10236,-0.11023,-0.11548,-0.12336,-0.11811,-0.11811,-0.12073,-0.091861,-0.049867,-0.002625,0.020997,0.023621,0.026246,0.023621,0.049867,0.073489,0.1391,0.20472,0.33332,0.51704,0.70864,0.86874,0.92123,0.90024,0.81362,0.60628,0.3097,0.036744,-0.17322,-0.31233,-0.39894,-0.45405,-0.5013,-0.53542,-0.56691,-0.57741,-0.57216,-0.55116,-0.49867,-0.43043,-0.36482,-0.31495,-0.28346,-0.25196,-0.23359,-0.20472,-0.1811,-0.15223,-0.12598,-0.089236,-0.076113,-0.065615,-0.055116,-0.052492,-0.060366,-0.057741,-0.055116,-0.044618,-0.044618,-0.039369,-0.036744,-0.036744,-0.03412,-0.041993,-0.023621,-0.023621,-0.031495,-0.031495,-0.020997,-0.026246,-0.023621,-0.026246,-0.018372,-0.007874,-0.007874,-0.015748,-0.010498,-0.013123,-0.010498,-0.028871,-0.015748,-0.015748,0,0.002625,0.002625,0.013123,0.013123,0.015748,0,0.010498,0.010498,0.007874,0.028871,0.036744,0.047243,0.036744,0.036744,0.047243,0.049867,0.055116,0.055116,0.052492,0.068239,0.065615,0.060366,0.073489,0.081362,0.086612,0.094485,0.11023,0.11023,0.11286,0.1391,0.13385,0.14435,0.1601,0.16273,0.18635,0.19159,0.21522,0.22309,0.22571,0.24934,0.26246,0.26508,0.2887,0.30708,0.3202,0.3307,0.35432,0.36744,0.38057,0.40944,0.42256,0.44618,0.46718,0.46718,0.4803,0.48555,0.5013,0.50392,0.50917,0.51967,0.52229,0.53279,0.52229,0.53542,0.52754,0.52754,0.51442,0.51442,0.49342,0.48817,0.45405,0.44881,0.43306,0.41469,0.40156,0.38319,0.37007,0.3412,0.32807,0.29133,0.26246,0.25196,0.22834,0.19947,0.19159,0.18897,0.15223,0.14435,0.13385,0.1286,0.094485,0.078738,0.070864,0.070864,0.065615,0.055116,0.047243,0.041993,0.031495,0.007874,0.010498,0.015748,0.007874,0,-0.002625,-0.015748,-0.010498,-0.005249,-0.018372,-0.018372,-0.013123,-0.013123,-0.013123,-0.018372,-0.020997,-0.020997,-0.018372,-0.020997,-0.023621,-0.013123,-0.013123,-0.020997,-0.031495,-0.026246,-0.026246,-0.03412,-0.026246,-0.023621,-0.020997,-0.026246,-0.023621,-0.020997,-0.013123,-0.013123,-0.023621,-0.023621,-0.018372,-0.018372,-0.015748,-0.026246,-0.036744,-0.023621,-0.018372,-0.028871,-0.023621,-0.026246,-0.018372,-0.015748,-0.015748,-0.015748,-0.010498,-0.013123,-0.023621,-0.018372,-0.010498,-0.018372,-0.013123,-0.013123,-0.015748,-0.018372,-0.03412,-0.015748,-0.010498,-0.018372,-0.018372,-0.018372,-0.007874,-0.002625,-0.010498,-0.015748,-0.005249,-0.005249,-0.018372,-0.013123,-0.010498,-0.015748,-0.020997,-0.010498,-0.002625,-0.013123,-0.005249,0.002625,-0.020997,-0.018372,-0.015748,-0.028871,-0.023621,-0.015748,-0.023621,-0.023621,-0.013123,-0.023621,-0.018372,-0.020997,-0.020997,-0.020997,-0.005249,-0.023621,-0.031495,-0.039369,-0.026246,-0.028871,-0.03412,-0.031495,-0.039369,-0.031495,-0.036744,-0.036744,-0.036744,-0.039369,-0.041993,-0.039369,-0.039369,-0.039369,-0.039369,-0.018372,-0.028871,-0.041993,-0.041993,-0.044618,-0.055116,-0.047243,-0.041993,-0.049867,-0.049867,-0.036744,-0.036744,-0.03412,-0.036744,-0.044618,-0.047243,-0.039369,-0.039369,-0.049867,-0.039369,-0.049867,-0.052492,-0.044618,-0.041993,-0.039369,-0.026246,-0.020997,-0.015748,0,0.002625,0.020997,0.023621,0.028871,0.028871,0.03412,0.023621,0.023621,0.028871,0.03412,0.047243,0.06299,0.068239,0.06299,0.057741,0.070864,0.083987,0.089236,0.073489,0.060366,0.049867,0.041993,0.031495,0.031495,0.023621,0.002625,0.002625,0.015748,0.031495,0.013123,-0.013123,-0.020997,-0.023621,-0.036744,-0.052492,-0.055116,-0.057741,-0.073489,-0.057741,-0.081362,-0.086612,-0.081362,-0.089236,-0.089236,-0.089236,-0.094485,-0.083987,-0.086612,-0.089236,-0.091861,-0.094485,-0.094485,-0.10498,-0.086612,-0.089236,-0.099734,-0.09711,-0.094485,-0.09711,-0.10498,-0.10498,-0.09711,-0.089236,-0.10236,-0.09711,-0.089236,-0.081362,-0.089236,-0.086612,-0.094485,-0.099734,-0.086612,-0.083987,-0.094485,-0.10236,-0.089236,-0.086612,-0.099734,-0.099734,-0.089236,-0.09711,-0.081362,-0.078738,-0.073489,-0.076113,-0.070864,-0.076113,-0.073489,-0.078738,-0.070864,-0.070864,-0.076113,-0.068239,-0.070864,-0.070864,-0.081362,-0.070864,-0.070864,-0.06299,-0.086612,-0.081362,-0.078738,-0.070864,-0.036744,0,0.031495,0.060366,0.083987,0.073489,0.089236,0.12073,0.13648,0.18372,0.23884,0.34382,0.49867,0.69289,0.84512,0.88974,0.85562,0.76901,0.56954,0.27033,0.013123,-0.18897,-0.3307,-0.41206,-0.45668,-0.47505,-0.51704,-0.53279,-0.54329,-0.54067,-0.51179,-0.46193,-0.39631,-0.3307,-0.2887,-0.24409,-0.20997,-0.19422,-0.17585,-0.1496,-0.13123,-0.11548,-0.081362,-0.049867,-0.03412,-0.03412,-0.023621,-0.013123,-0.007874,-0.018372,-0.020997,-0.013123,-0.013123,-0.010498,-0.007874,0,0.002625,0,0.010498,0.018372,0.015748,0.005249,0.015748,0.013123,0.010498,0.007874,0.007874,0.005249,0.018372,0.023621,0.013123,0.026246,0.026246,0.023621,0.028871,0.020997,0.023621,0.03412,0.036744,0.031495,0.044618,0.052492,0.060366,0.052492,0.06299,0.049867,0.060366,0.060366,0.065615,0.068239,0.073489,0.068239,0.091861,0.091861,0.10498,0.11023,0.11023,0.11286,0.13123,0.14435,0.1391,0.14435,0.15223,0.1601,0.16273,0.1706,0.17847,0.18897,0.19684,0.20997,0.22834,0.24934,0.24671,0.25721,0.27821,0.2887,0.29395,0.31233,0.32807,0.34907,0.35957,0.38057,0.40156,0.42518,0.42781,0.4593,0.4593,0.46193,0.48817,0.5013,0.5013,0.50917,0.52229,0.53542,0.53542,0.53804,0.54329,0.53804,0.53542,0.53804,0.54592,0.53017,0.52754,0.51704,0.50917,0.49867,0.4803,0.45143,0.42781,0.41206,0.38582,0.36744,0.34382,0.31495,0.29395,0.26771,0.24409,0.22834,0.20734,0.19159,0.16273,0.15223,0.1496,0.10236,0.10236,0.091861,0.068239,0.052492,0.036744,0.031495,0.023621,0.007874,0.007874,0.002625,-0.005249,-0.018372,-0.015748,-0.023621,-0.036744,-0.036744,-0.047243,-0.028871,-0.031495,-0.049867,-0.03412,-0.031495,-0.047243,-0.047243,-0.041993,-0.041993,-0.039369,-0.044618,-0.044618,-0.039369,-0.031495,-0.044618,-0.047243,-0.055116,-0.049867,-0.06299,-0.055116,-0.047243,-0.047243,-0.039369,-0.052492,-0.031495,-0.026246,-0.044618,-0.047243,-0.036744,-0.036744,-0.044618,-0.047243,-0.052492,-0.036744,-0.044618,-0.036744,-0.041993,-0.026246,-0.028871,-0.023621,-0.028871,-0.026246,-0.010498,-0.026246,-0.023621,-0.018372,-0.015748,-0.015748,-0.015748,-0.015748,-0.028871,-0.013123,-0.007874,-0.018372,-0.013123,-0.018372,-0.018372,-0.013123,0.002625,0.010498,0.002625,0,0.002625,0.005249,0.005249,0.005249,0.002625,0.005249,0.002625,-0.007874,-0.015748,0,0,0,0.015748,0.005249,0.007874,0.002625,0.002625,0.010498,-0.002625,0,-0.005249,0.005249,-0.002625,-0.007874,-0.013123,-0.005249,-0.007874,-0.002625,-0.002625,-0.010498,-0.013123,-0.018372,-0.018372,-0.015748,-0.007874,-0.015748,-0.018372,-0.020997,-0.010498,-0.010498,-0.015748,-0.028871,-0.028871,-0.026246,-0.028871,-0.03412,-0.03412,-0.031495,-0.036744,-0.026246,-0.028871,-0.03412,-0.026246,-0.023621,-0.026246,-0.026246,-0.023621,-0.023621,-0.036744,-0.023621,-0.028871,-0.018372,-0.028871,-0.028871,-0.020997,-0.039369,-0.036744,-0.041993,-0.036744,-0.044618,-0.039369,-0.036744,-0.03412,-0.03412,-0.036744,-0.031495,-0.026246,-0.015748,-0.007874,0.015748,0.010498,0.020997,0.028871,0.044618,0.052492,0.047243,0.052492,0.049867,0.039369,0.026246,0.041993,0.055116,0.057741,0.070864,0.086612,0.078738,0.086612,0.083987,0.083987,0.091861,0.068239,0.068239,0.078738,0.060366,0.055116,0.041993,0.039369,0.023621,0.023621,0.028871,0.020997,0.028871,0.015748,-0.013123,-0.018372,-0.026246,-0.018372,-0.03412,-0.039369,-0.047243,-0.049867,-0.057741,-0.060366,-0.052492,-0.065615,-0.073489,-0.078738,-0.078738,-0.068239,-0.076113,-0.083987,-0.070864,-0.086612,-0.073489,-0.076113,-0.073489,-0.073489,-0.081362,-0.086612,-0.081362,-0.073489,-0.083987,-0.086612,-0.083987,-0.081362,-0.083987,-0.083987,-0.083987,-0.086612,-0.081362,-0.086612,-0.078738,-0.078738,-0.068239,-0.076113,-0.078738,-0.076113,-0.070864,-0.081362,-0.078738,-0.070864,-0.070864,-0.068239,-0.065615,-0.052492,-0.070864,-0.065615,-0.065615,-0.057741,-0.052492,-0.065615,-0.076113,-0.065615,-0.06299,-0.06299,-0.060366,-0.047243,-0.060366,-0.049867,-0.047243,-0.055116,-0.060366,-0.065615,-0.057741,-0.057741,-0.031495,0,0.049867,0.078738,0.086612,0.10236,0.12598,0.1391,0.16535,0.20472,0.25721,0.35169,0.47768,0.63778,0.811,0.93173,0.96322,0.91598,0.75851,0.45668,0.15485,-0.086612,-0.29133,-0.40419,-0.43831,-0.47768,-0.52229,-0.56166,-0.55904,-0.54854,-0.53017,-0.46718,-0.40156,-0.34382,-0.28608,-0.24409,-0.22047,-0.18897,-0.17322,-0.15223,-0.11023,-0.089236,-0.060366,-0.03412,-0.028871,-0.015748,-0.010498,-0.013123,-0.015748,-0.005249,0.002625,0,-0.002625,-0.002625,-0.002625,0.005249,0.002625,0.002625,0.005249,0,0.015748,0.013123,0.010498,0.013123,0.015748,0.028871,0.03412,0.018372,0.031495,0.036744,0.036744,0.039369,0.041993,0.047243,0.039369,0.03412,0.036744,0.041993,0.044618,0.044618,0.039369,0.052492,0.047243,0.060366,0.060366,0.068239,0.073489,0.070864,0.081362,0.091861,0.09711,0.10236,0.09711,0.099734,0.11023,0.11811,0.11811,0.12598,0.13385,0.13385,0.13123,0.14435,0.16797,0.1601,0.16797,0.17322,0.17322,0.18372,0.20472,0.21259,0.23096,0.23096,0.24409,0.26771,0.27821,0.29395,0.30445,0.32282,0.33332,0.37007,0.36744,0.38057,0.40681,0.42518,0.44093,0.45668,0.46455,0.47243,0.48817,0.50392,0.50655,0.51179,0.53279,0.53279,0.53542,0.54592,0.54329,0.54329,0.54592,0.54854,0.54854,0.54067,0.53804,0.51967,0.51704,0.49867,0.48292,0.47243,0.44093,0.44093,0.41206,0.38319,0.35432,0.34645,0.33595,0.29395,0.27558,0.24934,0.22834,0.20997,0.19684,0.1706,0.1496,0.14435,0.12336,0.099734,0.083987,0.091861,0.068239,0.060366,0.041993,0.031495,0.018372,0.018372,0.015748,0.002625,0.002625,0.002625,-0.007874,-0.015748,-0.013123,-0.010498,-0.013123,-0.013123,-0.010498,-0.015748,-0.018372,-0.007874,-0.020997,-0.026246,-0.020997,-0.028871,-0.023621,-0.013123,-0.026246,-0.031495,-0.013123,-0.015748,-0.031495,-0.015748,-0.020997,-0.023621,-0.020997,-0.020997,-0.010498,-0.013123,-0.023621,-0.020997,-0.007874,-0.015748,-0.018372,-0.018372,-0.007874,-0.007874,-0.005249,-0.002625,0,-0.005249,-0.005249,0.002625,-0.002625,0.002625,0.002625,0.013123,0.010498,0.005249,0.005249,0.013123,0.015748,0.002625,0.007874,0.013123,0.013123,0.013123,0.018372,0.018372,0.007874,0.010498,0.015748,0.023621,0.031495,0.020997,0.018372,0.031495,0.03412,0.026246,0.020997,0.023621,0.031495,0.03412,0.028871,0.026246,0.015748,0.015748,0.020997,0.007874,0.005249,0.015748,0.023621,0.020997,0.018372,0.018372,0.013123,0.007874,0.013123,0.013123,0.013123,0.010498,0.013123,0.013123,0.013123,0.010498,0.002625,0.002625,0.002625,0.007874,0.005249,0.005249,0.002625,-0.005249,-0.007874,-0.005249,0,-0.007874,-0.013123,-0.002625,0.002625,-0.007874,-0.007874,0,-0.005249,-0.013123,-0.005249,-0.007874,-0.002625,-0.005249,-0.010498,-0.010498,-0.002625,-0.010498,-0.010498,-0.020997,-0.007874,-0.005249,-0.007874,-0.013123,-0.015748,-0.015748,-0.007874,-0.015748,-0.010498,-0.013123,-0.007874,-0.015748,-0.018372,-0.018372,-0.018372,-0.013123,-0.013123,-0.007874,-0.010498,-0.018372,-0.018372,-0.005249,-0.018372,-0.018372,-0.013123,-0.015748,-0.015748,-0.018372,-0.010498,-0.015748,-0.028871,-0.010498,-0.018372,-0.013123,-0.018372,-0.005249,-0.023621,-0.013123,0,-0.015748,-0.026246,-0.015748,-0.010498,-0.023621,-0.007874,-0.007874,-0.015748,-0.020997,-0.018372,-0.007874,-0.015748,-0.015748,-0.013123,0.007874,0.018372,0.018372,0.023621,0.039369,0.060366,0.070864,0.078738,0.083987,0.076113,0.068239,0.060366,0.060366,0.06299,0.073489,0.068239,0.076113,0.076113,0.094485,0.086612,0.086612,0.09711,0.094485,0.094485,0.086612,0.070864,0.052492,0.049867,0.057741,0.057741,0.047243,0.03412,0.041993,0.044618,0.044618,0.023621,0.020997,0.018372,-0.005249,-0.023621,-0.018372,-0.023621,-0.031495,-0.03412,-0.044618,-0.036744,-0.049867,-0.047243,-0.044618,-0.052492,-0.060366,-0.057741,-0.057741,-0.060366,-0.052492,-0.052492,-0.055116,-0.052492,-0.055116,-0.055116,-0.057741,-0.049867,-0.039369,-0.060366,-0.060366,-0.060366,-0.06299,-0.052492,-0.052492,-0.052492,-0.060366,-0.049867,-0.057741,-0.055116,-0.055116,-0.052492,-0.047243,-0.049867,-0.052492,-0.049867,-0.03412,-0.041993,-0.041993,-0.049867,-0.055116,-0.041993,-0.036744,-0.044618,-0.047243,-0.031495,-0.03412,-0.03412,-0.031495,-0.036744,-0.036744,-0.039369,-0.036744,-0.036744,-0.028871,-0.03412,-0.03412,-0.026246,-0.026246,-0.026246,-0.013123,-0.020997,-0.026246,-0.023621,-0.031495,-0.039369,-0.020997,-0.026246,-0.015748,0.028871,0.065615,0.099734,0.11286,0.13385,0.12336,0.1601,0.20997,0.24934,0.30183,0.38844,0.5013,0.68764,0.89499,1.0498,1.0997,1.0367,0.86349,0.55904,0.24146,-0.06299,-0.26246,-0.38319,-0.43306,-0.47243,-0.53804,-0.56691,-0.56429,-0.52492,-0.48817,-0.43568,-0.36482,-0.30183,-0.24934,-0.20472,-0.17322,-0.14698,-0.11811,-0.078738,-0.055116,-0.028871,-0.005249,-0.005249,0.002625,0.007874,0.015748,0.018372,0.018372,0.023621,0.031495,0.03412,0.047243,0.044618,0.044618,0.044618,0.052492,0.055116,0.052492,0.039369,0.052492,0.055116,0.047243,0.052492,0.057741,0.055116,0.052492,0.065615,0.065615,0.052492,0.06299,0.060366,0.068239,0.065615,0.065615,0.057741,0.06299,0.068239,0.083987,0.070864,0.070864,0.076113,0.078738,0.081362,0.076113,0.083987,0.078738,0.091861,0.10236,0.09711,0.10236,0.11023,0.12336,0.12073,0.11548,0.11023,0.13648,0.13123,0.1391,0.1601,0.16273,0.14435,0.16273,0.17847,0.18635,0.18897,0.19947,0.22047,0.22571,0.23096,0.23884,0.25721,0.26246,0.28346,0.29395,0.30183,0.31758,0.33857,0.35169,0.37794,0.40156,0.40419,0.41731,0.43831,0.44618,0.46455,0.47768,0.48555,0.49605,0.50655,0.52229,0.52754,0.54067,0.54854,0.55379,0.56166,0.56166,0.56429,0.56954,0.56429,0.55116,0.56429,0.55116,0.54854,0.52229,0.52754,0.50917,0.49605,0.47768,0.45405,0.43568,0.41469,0.39369,0.38057,0.34907,0.33332,0.31495,0.2887,0.26508,0.25721,0.22047,0.20209,0.19159,0.1811,0.1601,0.14435,0.1286,0.12336,0.10498,0.09711,0.094485,0.086612,0.073489,0.065615,0.055116,0.047243,0.052492,0.036744,0.039369,0.028871,0.028871,0.031495,0.036744,0.031495,0.023621,0.018372,0.028871,0.020997,0.020997,0.020997,0.026246,0.026246,0.026246,0.018372,0.020997,0.020997,0.018372,0.026246,0.026246,0.018372,0.013123,0.020997,0.026246,0.015748,0.002625,0.023621,0.015748,0.018372,0.023621,0.015748,0.007874,0.015748,0.023621,0.020997,0.023621,0.023621,0.018372,0.020997,0.018372,0.020997,0.020997,0.020997,0.018372,0.018372,0.015748,0.013123,0.010498,0.005249,0.015748,0.020997,0.018372,0.015748,0.026246,0.015748,0.018372,0.026246,0.020997,0.007874,0.026246,0.028871,0.015748,0.015748,0.020997,0.023621,0.020997,0.023621,0.013123,0.002625,0.010498,0.023621,0.023621,0.018372,0.015748,0.018372,0.015748,0.015748,0.013123,0.007874,0.002625,0.010498,0.020997,0.005249,0.015748,0.007874,0.015748,0.002625,0.002625,0.007874,0.002625,0.005249,0.007874,-0.010498,0.005249,0.005249,-0.002625,0,0,-0.005249,-0.010498,-0.005249,-0.007874,-0.010498,-0.002625,-0.010498,-0.015748,-0.007874,-0.007874,-0.013123,-0.005249,-0.020997,-0.010498,-0.013123,-0.005249,-0.015748,-0.023621,-0.018372,-0.010498,-0.020997,-0.026246,-0.026246,-0.023621,-0.026246,-0.026246,-0.020997,-0.028871,-0.026246,-0.018372,-0.023621,-0.020997,-0.023621,-0.020997,-0.03412,-0.028871,-0.036744,-0.031495,-0.03412,-0.039369,-0.031495,-0.041993,-0.028871,-0.026246,-0.028871,-0.031495,-0.03412,-0.03412,-0.03412,-0.044618,-0.028871,-0.020997,-0.031495,-0.041993,-0.041993,-0.041993,-0.036744,-0.03412,-0.03412,-0.03412,-0.036744,-0.03412,-0.03412,-0.036744,-0.036744,-0.03412,-0.041993,-0.041993,-0.044618,-0.049867,-0.047243,-0.039369,-0.039369,-0.03412,-0.049867,-0.049867,-0.039369,-0.047243,-0.047243,-0.044618,-0.03412,-0.047243,-0.041993,-0.047243,-0.044618,-0.041993,-0.057741,-0.039369,-0.036744,-0.049867,-0.044618,-0.039369,-0.052492,-0.057741,-0.052492,-0.041993,-0.047243,-0.055116,-0.041993,-0.044618,-0.039369,-0.036744,-0.041993,-0.047243,-0.047243,-0.039369,-0.047243,-0.052492,-0.060366,-0.047243,-0.044618,-0.055116,-0.057741,-0.049867,-0.047243,-0.047243,-0.060366,-0.044618,-0.052492,-0.047243,-0.06299,-0.049867,-0.057741,-0.065615,-0.03412,-0.052492,-0.057741,-0.060366,-0.044618,-0.041993,-0.057741,-0.049867,-0.044618,-0.049867,-0.055116,-0.044618,-0.047243,-0.057741,-0.052492,-0.047243,-0.049867,-0.057741,-0.036744,-0.026246,-0.020997,-0.005249,0.018372,0.031495,0.03412,0.047243,0.044618,0.031495,0.044618,0.023621,0.023621,0.018372,0.018372,0.031495,0.018372,0.031495,0.039369,0.041993,0.03412,0.041993,0.052492,0.052492,0.052492,0.039369,0.03412,0.03412,0.018372,0.013123,0.013123,0.002625,0,0.002625,0.005249,0.002625,-0.015748,-0.020997,-0.03412,-0.039369,-0.044618,-0.070864,-0.068239,-0.070864,-0.076113,-0.073489,-0.073489,-0.076113,-0.073489,-0.081362,-0.086612,-0.094485,-0.076113,-0.073489,-0.086612,-0.086612,-0.089236,-0.076113,-0.089236,-0.09711,-0.09711,-0.094485,-0.10498,-0.094485,-0.094485,-0.091861,-0.086612,-0.094485,-0.10498,-0.094485,-0.09711,-0.11286,-0.09711,-0.099734,-0.10498,-0.10236,-0.10236,-0.10498,-0.094485,-0.09711,-0.099734,-0.10236,-0.094485,-0.086612,-0.099734,-0.09711,-0.086612,-0.086612,-0.091861,-0.099734,-0.089236,-0.094485,-0.081362,-0.094485,-0.091861,-0.078738,-0.081362,-0.068239,-0.073489,-0.076113,-0.06299,-0.065615,-0.065615,-0.06299,-0.055116,-0.057741,-0.057741,-0.06299,-0.068239,-0.070864,-0.060366,-0.065615,-0.078738,-0.068239,-0.081362,-0.065615,-0.065615,-0.081362,-0.081362,-0.081362,-0.073489,-0.06299,-0.020997,0.020997,0.049867,0.070864,0.073489,0.083987,0.11548,0.15748,0.20734,0.27033,0.34382,0.48292,0.65352,0.86349,1.0078,1.0472,0.97897,0.79788,0.48555,0.15223,-0.13123,-0.31233,-0.42256,-0.46718,-0.51442,-0.57741,-0.59841,-0.59578,-0.55904,-0.50655,-0.45668,-0.38844,-0.3202,-0.28346,-0.23884,-0.21259,-0.18372,-0.15223,-0.11811,-0.083987,-0.055116,-0.060366,-0.049867,-0.047243,-0.044618,-0.047243,-0.03412,-0.039369,-0.03412,-0.028871,-0.023621,-0.018372,-0.018372,-0.018372,-0.010498,-0.020997,-0.010498,-0.002625,-0.005249,-0.015748,-0.005249,0,0,0,0,-0.002625,-0.007874,0.013123,0.013123,0.007874,0.007874,0.002625,0.010498,0.010498,0.018372,0.020997,0.020997,0.028871,0.028871,0.023621,0.026246,0.03412,0.03412,0.039369,0.044618,0.052492,0.044618,0.052492,0.070864,0.060366,0.070864,0.078738,0.083987,0.089236,0.099734,0.099734,0.10236,0.10761,0.12073,0.1286,0.14173,0.1496,0.15485,0.16273,0.17322,0.19159,0.18635,0.19947,0.20997,0.22309,0.24146,0.25721,0.26771,0.2887,0.2887,0.31495,0.33332,0.3412,0.35169,0.37532,0.38319,0.40156,0.42256,0.42781,0.44618,0.46193,0.4698,0.48555,0.5013,0.50655,0.50917,0.52492,0.53279,0.53804,0.54854,0.54329,0.54592,0.55641,0.55379,0.54592,0.55116,0.54854,0.55116,0.52754,0.51179,0.50917,0.4908,0.4698,0.46193,0.43831,0.41206,0.39631,0.37794,0.35694,0.33857,0.31233,0.28346,0.26246,0.25721,0.22571,0.20472,0.18897,0.17322,0.15223,0.14698,0.1286,0.10236,0.09711,0.086612,0.070864,0.057741,0.055116,0.047243,0.047243,0.026246,0.015748,0.010498,0.015748,0,0,0.002625,0,0,-0.015748,-0.018372,-0.013123,-0.007874,-0.015748,-0.018372,-0.015748,-0.018372,-0.023621,-0.023621,-0.015748,-0.023621,-0.031495,-0.020997,-0.026246,-0.031495,-0.026246,-0.015748,-0.023621,-0.026246,-0.013123,-0.010498,-0.018372,-0.015748,-0.026246,-0.026246,-0.026246,-0.026246,-0.03412,-0.031495,-0.018372,-0.026246,-0.023621,-0.03412,-0.028871,-0.028871,-0.036744,-0.03412,-0.031495,-0.028871,-0.028871,-0.018372,-0.020997,-0.018372,-0.020997,-0.018372,-0.020997,-0.026246,-0.028871,-0.013123,-0.018372,-0.018372,-0.023621,-0.023621,-0.018372,-0.020997,-0.015748,-0.013123,-0.013123,-0.023621,-0.018372,-0.010498,-0.015748,-0.015748,-0.020997,-0.005249,-0.020997,-0.020997,-0.028871,-0.026246,-0.018372,-0.018372,-0.005249,-0.023621,-0.026246,-0.015748,-0.018372,-0.010498,-0.018372,-0.020997,-0.026246,-0.026246,-0.031495,-0.036744,-0.031495,-0.026246,-0.028871,-0.028871,-0.036744,-0.031495,-0.036744,-0.039369,-0.03412,-0.044618,-0.039369,-0.036744,-0.047243,-0.047243,-0.047243,-0.041993,-0.052492,-0.052492,-0.041993,-0.047243,-0.047243,-0.055116,-0.044618,-0.055116,-0.065615,-0.052492,-0.060366,-0.060366,-0.055116,-0.065615,-0.052492,-0.055116,-0.060366,-0.060366,-0.057741,-0.070864,-0.057741,-0.057741,-0.060366,-0.06299,-0.06299,-0.070864,-0.068239,-0.052492,-0.06299,-0.06299,-0.068239,-0.055116,-0.060366,-0.055116,-0.065615,-0.068239,-0.057741,-0.065615,-0.076113,-0.060366,-0.06299,-0.070864,-0.060366,-0.068239,-0.076113,-0.068239,-0.060366,-0.065615,-0.057741,-0.076113,-0.068239,-0.065615,-0.06299,-0.073489,-0.081362,-0.078738,-0.060366,-0.068239,-0.060366,-0.076113,-0.070864,-0.073489,-0.070864,-0.073489,-0.078738,-0.060366,-0.070864,-0.078738,-0.070864,-0.078738,-0.081362,-0.076113,-0.070864,-0.073489,-0.076113,-0.070864,-0.073489,-0.083987,-0.076113,-0.081362,-0.083987,-0.076113,-0.068239,-0.070864,-0.076113,-0.078738,-0.081362,-0.073489,-0.076113,-0.070864,-0.073489,-0.06299,-0.070864,-0.078738,-0.073489,-0.086612,-0.076113,-0.089236,-0.081362,-0.076113,-0.078738,-0.086612,-0.081362,-0.078738,-0.078738,-0.070864,-0.06299,-0.078738,-0.083987,-0.081362,-0.076113,-0.068239,-0.083987,-0.083987,-0.078738,-0.065615,-0.086612,-0.081362,-0.086612,-0.078738,-0.083987,-0.089236,-0.081362,-0.081362,-0.086612,-0.083987,-0.083987,-0.083987,-0.081362,-0.081362,-0.083987,-0.086612,-0.076113,-0.081362,-0.078738,-0.070864,-0.065615,-0.052492,-0.036744,-0.036744,-0.020997,0.002625,0.007874,0.010498,0.005249,-0.005249,-0.013123,-0.007874,-0.015748,-0.015748,-0.007874,-0.020997,0.002625,0.010498,0.005249,0.005249,0.002625,0.013123,0.031495,0.018372,0.002625,0.002625,0.002625,-0.018372,-0.015748,-0.013123,-0.020997,-0.036744,-0.036744,-0.036744,-0.023621,-0.036744,-0.047243,-0.052492,-0.068239,-0.091861,-0.089236,-0.10498,-0.10236,-0.10498,-0.10236,-0.10761,-0.10761,-0.11811,-0.12336,-0.1286,-0.12336,-0.10761,-0.11286,-0.11548,-0.11548,-0.12073,-0.12073,-0.12073,-0.12073,-0.12073,-0.12598,-0.12073,-0.1286,-0.1286,-0.12336,-0.1286,-0.12073,-0.13385,-0.11811,-0.12598,-0.12598,-0.11023,-0.11548,-0.1286,-0.12073,-0.11548,-0.12073,-0.12336,-0.11023,-0.11286,-0.11286,-0.11811,-0.11548,-0.10761,-0.11023,-0.11286,-0.10761,-0.11548,-0.10761,-0.089236,-0.099734,-0.10761,-0.089236,-0.11023,-0.09711,-0.091861,-0.089236,-0.089236,-0.086612,-0.083987,-0.083987,-0.076113,-0.083987,-0.081362,-0.083987,-0.076113,-0.081362,-0.083987,-0.070864,-0.076113,-0.091861,-0.070864,-0.083987,-0.076113,-0.076113,-0.083987,-0.083987,-0.083987,-0.086612,-0.086612,-0.083987,-0.073489,-0.044618,-0.010498,0.020997,0.044618,0.06299,0.06299,0.089236,0.12073,0.1601,0.22309,0.29658,0.41994,0.58003,0.79263,0.9606,1.0341,1.0052,0.86611,0.58528,0.26246,-0.039369,-0.25983,-0.37794,-0.44881,-0.48292,-0.54067,-0.57741,-0.58528,-0.56691,-0.54592,-0.47243,-0.40419,-0.34382,-0.2992,-0.25459,-0.22834,-0.21259,-0.17322,-0.13648,-0.11811,-0.086612,-0.06299,-0.055116,-0.044618,-0.052492,-0.047243,-0.039369,-0.039369,-0.039369,-0.03412,-0.036744,-0.036744,-0.015748,-0.031495,-0.041993,-0.026246,-0.023621,-0.015748,-0.018372,-0.020997,-0.018372,-0.015748,-0.010498,-0.007874,-0.013123,-0.005249,-0.005249,-0.002625,0.002625,-0.002625,0.007874,0.007874,0.010498,0.007874,0.005249,0.013123,0.023621,0.020997,0.026246,0.020997,0.026246,0.026246,0.03412,0.026246,0.041993,0.041993,0.055116,0.052492,0.060366,0.060366,0.06299,0.070864,0.076113,0.083987,0.086612,0.086612,0.094485,0.10498,0.11548,0.12336,0.1391,0.1391,0.1391,0.15485,0.16273,0.1706,0.17585,0.18635,0.19947,0.20472,0.21522,0.24146,0.24671,0.25721,0.27033,0.29658,0.31495,0.32545,0.33857,0.35432,0.37007,0.38057,0.40156,0.42256,0.43043,0.43831,0.45668,0.46193,0.4803,0.49867,0.5013,0.51179,0.53017,0.53279,0.54329,0.53279,0.54592,0.54067,0.53804,0.55641,0.54854,0.55116,0.52492,0.52754,0.52492,0.51442,0.5013,0.4803,0.45405,0.44881,0.42256,0.40419,0.38057,0.37269,0.3412,0.31495,0.28346,0.27033,0.24934,0.22834,0.21784,0.19684,0.17585,0.1601,0.1391,0.13385,0.11548,0.10761,0.083987,0.057741,0.049867,0.052492,0.044618,0.036744,0.018372,0.020997,0.005249,0.005249,0,0,0.005249,-0.013123,-0.015748,-0.010498,-0.015748,-0.018372,-0.020997,-0.023621,-0.015748,-0.013123,-0.010498,-0.023621,-0.020997,-0.015748,-0.018372,-0.028871,-0.023621,-0.020997,-0.036744,-0.039369,-0.031495,-0.03412,-0.031495,-0.03412,-0.031495,-0.041993,-0.036744,-0.023621,-0.039369,-0.03412,-0.028871,-0.031495,-0.028871,-0.03412,-0.028871,-0.023621,-0.036744,-0.03412,-0.031495,-0.026246,-0.028871,-0.028871,-0.03412,-0.023621,-0.020997,-0.015748,-0.020997,-0.036744,-0.015748,-0.018372,-0.03412,-0.03412,-0.028871,-0.03412,-0.015748,-0.026246,-0.023621,-0.020997,-0.026246,-0.020997,-0.026246,-0.026246,-0.028871,-0.026246,-0.013123,-0.020997,-0.023621,-0.026246,-0.03412,-0.010498,-0.018372,-0.028871,-0.023621,-0.026246,-0.020997,-0.026246,-0.015748,-0.015748,-0.026246,-0.03412,-0.023621,-0.026246,-0.026246,-0.015748,-0.015748,-0.023621,-0.03412,-0.041993,-0.020997,-0.028871,-0.03412,-0.03412,-0.031495,-0.049867,-0.049867,-0.036744,-0.03412,-0.036744,-0.03412,-0.041993,-0.047243,-0.049867,-0.055116,-0.052492,-0.044618,-0.049867,-0.047243,-0.049867,-0.047243,-0.044618,-0.057741,-0.057741,-0.052492,-0.052492,-0.060366,-0.057741,-0.057741,-0.060366,-0.057741,-0.055116,-0.057741,-0.052492,-0.057741,-0.052492,-0.052492,-0.068239,-0.060366,-0.065615,-0.047243,-0.06299,-0.070864,-0.068239,-0.06299,-0.052492,-0.06299,-0.06299,-0.06299,-0.073489,-0.065615,-0.06299,-0.055116,-0.055116,-0.073489,-0.070864,-0.057741,-0.070864,-0.070864,-0.073489,-0.073489,-0.078738,-0.073489,-0.065615,-0.078738,-0.060366,-0.065615,-0.068239,-0.070864,-0.076113,-0.068239,-0.070864,-0.081362,-0.076113,-0.076113,-0.083987,-0.06299,-0.060366,-0.06299,-0.065615,-0.076113,-0.078738,-0.068239,-0.078738,-0.06299,-0.065615,-0.065615,-0.068239,-0.065615,-0.065615,-0.070864,-0.070864,-0.076113,-0.070864,-0.06299,-0.065615,-0.078738,-0.073489,-0.06299,-0.073489,-0.073489,-0.076113,-0.060366,-0.070864,-0.070864,-0.068239,-0.073489,-0.065615,-0.076113,-0.070864,-0.06299,-0.068239,-0.060366,-0.065615,-0.081362,-0.068239,-0.065615,-0.055116,-0.057741,-0.057741,-0.036744,-0.028871,-0.015748,0,0.007874,0.015748,0.007874,-0.005249,0,0.002625,0.005249,0,0.002625,0,0.010498,0.03412,0.044618,0.036744,0.03412,0.041993,0.041993,0.047243,0.039369,0.026246,0.018372,0.002625,0,-0.005249,0.005249,-0.002625,-0.002625,0.007874,0.005249,-0.005249,-0.026246,-0.044618,-0.049867,-0.070864,-0.081362,-0.083987,-0.081362,-0.081362,-0.081362,-0.081362,-0.081362,-0.081362,-0.089236,-0.094485,-0.11811,-0.11286,-0.11286,-0.11811,-0.11023,-0.10761,-0.10498,-0.10498,-0.10761,-0.09711,-0.10761,-0.11286,-0.11548,-0.11023,-0.12073,-0.11286,-0.11548,-0.12073,-0.11023,-0.11023,-0.11286,-0.11286,-0.11286,-0.10236,-0.10498,-0.10761,-0.11548,-0.11548,-0.10761,-0.09711,-0.10236,-0.11286,-0.10236,-0.09711,-0.11286,-0.11023,-0.10236,-0.10236,-0.099734,-0.10761,-0.094485,-0.099734,-0.099734,-0.10498,-0.10498,-0.10236,-0.089236,-0.089236,-0.091861,-0.086612,-0.083987,-0.089236,-0.078738,-0.09711,-0.09711,-0.086612,-0.083987,-0.083987,-0.091861,-0.076113,-0.086612,-0.089236,-0.094485,-0.086612,-0.09711,-0.10498,-0.10761,-0.099734,-0.078738,-0.031495,0.007874,0.049867,0.060366,0.057741,0.060366,0.099734,0.11811,0.1706,0.23359,0.33595,0.49867,0.70339,0.86087,0.9396,0.94223,0.85824,0.66402,0.35694,0.086612,-0.13385,-0.28346,-0.38319,-0.44356,-0.48292,-0.53279,-0.55379,-0.56166,-0.54592,-0.51967,-0.46455,-0.40944,-0.34382,-0.3097,-0.26508,-0.24934,-0.21784,-0.20472,-0.17585,-0.14698,-0.11286,-0.078738,-0.057741,-0.044618,-0.049867,-0.060366,-0.047243,-0.06299,-0.049867,-0.041993,-0.049867,-0.041993,-0.031495,-0.028871,-0.026246,-0.020997,-0.026246,-0.015748,-0.028871,-0.018372,-0.018372,-0.020997,-0.010498,-0.026246,-0.010498,-0.026246,-0.028871,-0.026246,-0.018372,-0.013123,0,0,0.007874,0.005249,-0.007874,0.013123,0.005249,0.015748,0.005249,0.013123,0.020997,0.007874,0.007874,0.015748,0.015748,0.018372,0.036744,0.036744,0.028871,0.039369,0.039369,0.041993,0.044618,0.055116,0.078738,0.078738,0.076113,0.083987,0.089236,0.091861,0.099734,0.10498,0.10761,0.12073,0.12336,0.13123,0.15223,0.15748,0.16535,0.17322,0.18897,0.19947,0.21784,0.23359,0.25196,0.25983,0.26771,0.29658,0.31495,0.33857,0.34645,0.35432,0.37794,0.38582,0.40419,0.41994,0.43306,0.45143,0.46455,0.47768,0.4908,0.51967,0.51704,0.53804,0.53804,0.53804,0.53279,0.54067,0.53279,0.52492,0.52754,0.52754,0.51967,0.52229,0.49342,0.48555,0.48555,0.46455,0.45143,0.42518,0.40681,0.37269,0.36219,0.34645,0.3202,0.29658,0.27296,0.24934,0.23359,0.20472,0.19159,0.17847,0.14435,0.1391,0.12336,0.09711,0.09711,0.076113,0.073489,0.060366,0.052492,0.041993,0.044618,0.026246,0.018372,0.002625,-0.007874,-0.020997,-0.018372,-0.018372,-0.015748,-0.010498,-0.020997,-0.018372,-0.03412,-0.020997,-0.026246,-0.020997,-0.026246,-0.036744,-0.041993,-0.039369,-0.031495,-0.039369,-0.041993,-0.039369,-0.028871,-0.03412,-0.026246,-0.039369,-0.047243,-0.044618,-0.049867,-0.041993,-0.036744,-0.026246,-0.026246,-0.036744,-0.028871,-0.044618,-0.049867,-0.041993,-0.041993,-0.041993,-0.047243,-0.041993,-0.036744,-0.036744,-0.03412,-0.044618,-0.047243,-0.039369,-0.041993,-0.049867,-0.044618,-0.041993,-0.057741,-0.041993,-0.028871,-0.039369,-0.039369,-0.026246,-0.044618,-0.041993,-0.041993,-0.039369,-0.044618,-0.039369,-0.028871,-0.03412,-0.03412,-0.03412,-0.031495,-0.010498,-0.010498,-0.026246,-0.026246,-0.018372,-0.013123,-0.023621,-0.018372,-0.023621,-0.03412,-0.020997,-0.031495,-0.03412,-0.023621,-0.026246,-0.023621,-0.03412,-0.041993,-0.031495,-0.036744,-0.039369,-0.020997,-0.026246,-0.03412,-0.031495,-0.03412,-0.018372,-0.026246,-0.03412,-0.031495,-0.041993,-0.041993,-0.047243,-0.041993,-0.036744,-0.055116,-0.047243,-0.041993,-0.049867,-0.041993,-0.049867,-0.041993,-0.049867,-0.055116,-0.052492,-0.052492,-0.047243,-0.044618,-0.049867,-0.03412,-0.03412,-0.039369,-0.041993,-0.057741,-0.070864,-0.057741,-0.068239,-0.073489,-0.068239,-0.057741,-0.055116,-0.06299,-0.060366,-0.060366,-0.057741,-0.068239,-0.068239,-0.047243,-0.052492,-0.060366,-0.060366,-0.055116,-0.049867,-0.044618,-0.041993,-0.039369,-0.018372,-0.018372,-0.005249,0.005249,0.010498,0.015748,0.013123,0.020997,0.005249,0,0.005249,0.018372,0.013123,0.041993,0.052492,0.060366,0.068239,0.06299,0.065615,0.06299,0.049867,0.052492,0.047243,0.03412,0.020997,0.03412,0.015748,0,-0.002625,-0.005249,-0.007874,0.010498,0.002625,-0.020997,-0.041993,-0.047243,-0.055116,-0.057741,-0.06299,-0.073489,-0.086612,-0.083987,-0.089236,-0.081362,-0.09711,-0.099734,-0.09711,-0.10761,-0.11286,-0.10761,-0.091861,-0.10236,-0.10761,-0.09711,-0.09711,-0.11548,-0.11023,-0.11286,-0.10498,-0.11023,-0.099734,-0.10761,-0.10498,-0.10236,-0.094485,-0.11548,-0.10498,-0.11286,-0.11286,-0.099734,-0.10236,-0.099734,-0.094485,-0.10498,-0.091861,-0.09711,-0.09711,-0.094485,-0.10236,-0.09711,-0.10236,-0.099734,-0.09711,-0.09711,-0.09711,-0.089236,-0.081362,-0.083987,-0.081362,-0.086612,-0.073489,-0.083987,-0.089236,-0.073489,-0.083987,-0.081362,-0.086612,-0.078738,-0.065615,-0.073489,-0.076113,-0.081362,-0.078738,-0.083987,-0.086612,-0.078738,-0.083987,-0.078738,-0.070864,-0.060366,-0.041993,0.002625,0.039369,0.057741,0.068239,0.057741,0.078738,0.11811,0.1496,0.1811,0.25721,0.37007,0.53017,0.72701,0.87399,0.91073,0.86611,0.76638,0.54592,0.24671,0.007874,-0.19422,-0.32807,-0.40944,-0.44093,-0.48817,-0.51967,-0.53017,-0.55116,-0.53017,-0.50392,-0.44618,-0.37794,-0.3202,-0.27821,-0.24146,-0.21522,-0.19947,-0.18635,-0.15748,-0.1286,-0.099734,-0.06299,-0.052492,-0.03412,-0.031495,-0.031495,-0.039369,-0.026246,-0.015748,-0.018372,-0.010498,-0.020997,-0.007874,-0.002625,0.002625,-0.002625,-0.005249,-0.002625,0.010498,0.007874,0.010498,0.007874,0.007874,0.007874,0.010498,0.013123,0.013123,0.020997,0.020997,0.015748,0.015748,0.031495,0.03412,0.036744,0.028871,0.039369,0.039369,0.049867,0.044618,0.044618,0.049867,0.049867,0.047243,0.057741,0.065615,0.070864,0.089236,0.076113,0.083987,0.10236,0.083987,0.09711,0.10236,0.11548,0.11286,0.12598,0.12336,0.12073,0.13385,0.12598,0.14173,0.14435,0.15223,0.15748,0.16797,0.1811,0.18372,0.19684,0.20472,0.22834,0.23096,0.25196,0.25983,0.27558,0.2992,0.31233,0.3202,0.34382,0.35432,0.36744,0.39369,0.40156,0.41206,0.44093,0.45143,0.4593,0.47243,0.48292,0.49867,0.50655,0.50655,0.51179,0.53279,0.53279,0.53542,0.54329,0.54067,0.53542,0.54592,0.53804,0.54067,0.52229,0.52492,0.50392,0.4908,0.47243,0.46193,0.44356,0.40944,0.39894,0.38319,0.34907,0.32545,0.30445,0.27033,0.26508,0.24409,0.21784,0.19947,0.19159,0.16535,0.1391,0.13123,0.10236,0.086612,0.076113,0.070864,0.055116,0.049867,0.028871,0.039369,0.018372,-0.002625,-0.002625,0.002625,-0.005249,-0.015748,-0.002625,-0.015748,-0.018372,-0.026246,-0.031495,-0.03412,-0.044618,-0.03412,-0.039369,-0.026246,-0.031495,-0.03412,-0.036744,-0.039369,-0.041993,-0.03412,-0.031495,-0.036744,-0.028871,-0.03412,-0.044618,-0.031495,-0.010498,-0.023621,-0.026246,-0.028871,-0.015748,-0.028871,-0.031495,-0.031495,-0.031495,-0.018372,-0.026246,-0.018372,-0.010498,-0.013123,-0.018372,-0.002625,-0.005249,0.002625,-0.005249,-0.007874,-0.002625,0.002625,-0.010498,-0.002625,-0.005249,0.002625,0,0.005249,0.002625,-0.005249,-0.002625,-0.002625,0,0.002625,0.005249,0.002625,0.007874,0.018372,0.018372,0.010498,0.005249,0.026246,0.018372,0.015748,0.028871,0.028871,0.023621,0.013123,0.010498,0.020997,0.026246,0.010498,0.013123,0.007874,0.013123,0.013123,0.015748,0.015748,0.007874,0.013123,0.018372,0.005249,0.005249,0.007874,0.013123,0.013123,0.020997,0.020997,0.010498,0.013123,0.013123,0.015748,0.013123,0.002625,0.007874,0,-0.010498,0.005249,-0.002625,-0.005249,-0.007874,0.002625,0.010498,-0.005249,0,0.005249,0.002625,0.002625,0.002625,-0.010498,0,-0.007874,-0.018372,0.002625,-0.002625,-0.010498,-0.007874,-0.002625,0.002625,-0.010498,-0.020997,-0.010498,-0.013123,-0.007874,-0.013123,-0.007874,-0.015748,-0.010498,-0.002625,-0.007874,-0.013123,-0.002625,-0.010498,-0.010498,-0.005249,-0.007874,-0.010498,-0.020997,-0.018372,-0.013123,-0.007874,-0.007874,-0.010498,-0.005249,0,-0.013123,-0.018372,0.005249,-0.002625,-0.013123,-0.002625,-0.010498,-0.002625,0.013123,0.015748,0.026246,0.052492,0.055116,0.068239,0.078738,0.083987,0.091861,0.078738,0.070864,0.070864,0.076113,0.078738,0.076113,0.078738,0.094485,0.11023,0.10498,0.094485,0.099734,0.11548,0.10761,0.091861,0.10236,0.086612,0.083987,0.068239,0.065615,0.055116,0.044618,0.044618,0.049867,0.057741,0.049867,0.031495,0.026246,0.013123,0.007874,0.002625,-0.015748,-0.020997,-0.023621,-0.028871,-0.036744,-0.03412,-0.041993,-0.044618,-0.047243,-0.057741,-0.052492,-0.044618,-0.044618,-0.039369,-0.052492,-0.049867,-0.047243,-0.049867,-0.049867,-0.055116,-0.052492,-0.049867,-0.044618,-0.039369,-0.057741,-0.057741,-0.060366,-0.060366,-0.044618,-0.047243,-0.041993,-0.041993,-0.049867,-0.047243,-0.041993,-0.047243,-0.052492,-0.041993,-0.041993,-0.049867,-0.052492,-0.049867,-0.049867,-0.036744,-0.041993,-0.031495,-0.03412,-0.039369,-0.03412,-0.041993,-0.031495,-0.028871,-0.036744,-0.039369,-0.028871,-0.026246,-0.026246,-0.028871,-0.018372,-0.023621,-0.031495,-0.018372,-0.018372,-0.023621,-0.010498,-0.007874,-0.023621,-0.031495,-0.023621,-0.023621,-0.03412,-0.015748,-0.007874,0.03412,0.073489,0.10761,0.11811,0.11548,0.12336,0.17847,0.19684,0.24671,0.30445,0.39631,0.53542,0.71651,0.89761,1.0183,1.0288,0.96322,0.77426,0.46455,0.15223,-0.11023,-0.29395,-0.38319,-0.42256,-0.46455,-0.51967,-0.54067,-0.53542,-0.52229,-0.48292,-0.43306,-0.36219,-0.2992,-0.25196,-0.21259,-0.16797,-0.16273,-0.1286,-0.089236,-0.076113,-0.052492,-0.026246,-0.002625,-0.002625,0.013123,0.005249,0.010498,0.015748,0.015748,0.010498,0.028871,0.026246,0.03412,0.036744,0.041993,0.028871,0.041993,0.044618,0.036744,0.039369,0.041993,0.041993,0.049867,0.055116,0.049867,0.06299,0.065615,0.070864,0.068239,0.073489,0.078738,0.076113,0.086612,0.10236,0.089236,0.09711,0.083987,0.091861,0.091861,0.091861,0.09711,0.089236,0.094485,0.09711,0.10498,0.10236,0.10761,0.11811,0.10498,0.11548,0.12336,0.12073,0.12598,0.1286,0.13648,0.12336,0.15223,0.15223,0.1601,0.1601,0.16535,0.17322,0.17847,0.19159,0.20734,0.21259,0.23096,0.23096,0.23621,0.23884,0.27033,0.2887,0.28346,0.29658,0.31495,0.3412,0.33857,0.36744,0.38582,0.39369,0.41206,0.43306,0.44356,0.4593,0.47505,0.47243,0.50655,0.50917,0.51704,0.52229,0.54067,0.54329,0.55116,0.56166,0.56691,0.56691,0.56429,0.57479,0.57741,0.56691,0.56691,0.56954,0.55379,0.55116,0.53542,0.51967,0.49605,0.4908,0.47243,0.44356,0.43043,0.40681,0.38582,0.35957,0.33595,0.3202,0.29658,0.27296,0.25196,0.23096,0.20209,0.19159,0.1811,0.16535,0.14173,0.13648,0.11811,0.099734,0.09711,0.09711,0.070864,0.076113,0.06299,0.060366,0.044618,0.047243,0.03412,0.03412,0.031495,0.023621,0.023621,0.020997,0.028871,0.015748,0.018372,0.018372,0.015748,0.023621,0.015748,0.023621,0.023621,0.015748,0.028871,0.028871,0.023621,0.018372,0.020997,0.013123,0.018372,0.020997,0.013123,0.023621,0.026246,0.018372,0.015748,0.028871,0.026246,0.03412,0.020997,0.031495,0.03412,0.028871,0.015748,0.03412,0.028871,0.031495,0.036744,0.036744,0.039369,0.03412,0.031495,0.026246,0.036744,0.041993,0.03412,0.039369,0.03412,0.028871,0.044618,0.03412,0.036744,0.028871,0.041993,0.031495,0.041993,0.047243,0.03412,0.036744,0.044618,0.039369,0.036744,0.031495,0.039369,0.041993,0.039369,0.052492,0.049867,0.039369,0.031495,0.03412,0.041993,0.041993,0.047243,0.047243,0.039369,0.041993,0.047243,0.028871,0.028871,0.028871,0.036744,0.041993,0.023621,0.039369,0.036744,0.023621,0.039369,0.023621,0.018372,0.026246,0.026246,0.031495,0.03412,0.03412,0.020997,0.028871,0.026246,0.018372,0.020997,0.018372,0.020997,0.020997,0.018372,0.015748,0.015748,0.007874,0.005249,0.015748,0.015748,0.005249,0.020997,0.010498,0.005249,0.018372,0.002625,0.005249,0.005249,0.023621,0.007874,0.002625,0.007874,0.005249,0,0.010498,0,0.007874,0,0.013123,0.015748,0.002625,0.002625,0.002625,0.007874,0,0.002625,0.002625,0.005249,-0.013123,-0.005249,-0.010498,0,0.005249,-0.002625,0.002625,0.005249,-0.005249,-0.007874,0,0,-0.007874,-0.013123,-0.005249,-0.005249,0,0,0.005249,0.007874,-0.013123,-0.007874,-0.002625,-0.010498,-0.010498,-0.007874,-0.005249,-0.013123,-0.010498,-0.023621,-0.018372,-0.018372,-0.013123,-0.018372,-0.005249,-0.010498,-0.010498,-0.002625,-0.005249,-0.020997,0,-0.010498,-0.018372,-0.015748,-0.010498,-0.010498,-0.010498,-0.020997,-0.010498,-0.007874,-0.020997,-0.013123,-0.013123,-0.026246,-0.018372,-0.002625,-0.013123,0,-0.002625,-0.007874,-0.007874,-0.015748,-0.013123,-0.015748,-0.015748,-0.005249,-0.015748,-0.020997,-0.018372,-0.005249,-0.013123,-0.015748,-0.002625,-0.007874,-0.015748,-0.015748,-0.005249,0.002625,-0.010498,-0.010498,-0.018372,-0.013123,-0.013123,-0.015748,-0.031495,-0.018372,-0.010498,-0.013123,-0.018372,-0.007874,-0.002625,-0.020997,-0.005249,-0.010498,-0.007874,-0.010498,-0.013123,-0.007874,-0.005249,-0.007874,-0.002625,-0.013123,-0.015748,-0.015748,-0.013123,-0.013123,-0.015748,0,-0.020997,-0.007874,-0.010498,-0.010498,-0.013123,-0.020997,-0.010498,-0.015748,-0.010498,-0.013123,-0.015748,-0.005249,-0.013123,-0.015748,-0.005249,0.002625,0.007874,0.026246,0.039369,0.047243,0.070864,0.083987,0.078738,0.070864,0.055116,0.060366,0.055116,0.060366,0.049867,0.052492,0.047243,0.055116,0.068239,0.073489,0.06299,0.057741,0.081362,0.083987,0.076113,0.065615,0.073489,0.06299,0.047243,0.052492,0.044618,0.031495,0.026246,0.018372,0.039369,0.023621,0.031495,0.023621,-0.002625,-0.010498,-0.013123,-0.031495,-0.026246,-0.039369,-0.036744,-0.03412,-0.044618,-0.044618,-0.049867,-0.060366,-0.055116,-0.057741,-0.055116,-0.055116,-0.06299,-0.060366,-0.055116,-0.060366,-0.070864,-0.06299,-0.057741,-0.068239,-0.070864,-0.073489,-0.06299,-0.060366,-0.070864,-0.073489,-0.073489,-0.060366,-0.073489,-0.070864,-0.070864,-0.065615,-0.052492,-0.060366,-0.06299,-0.052492,-0.057741,-0.057741,-0.052492,-0.049867,-0.044618,-0.055116,-0.047243,-0.047243,-0.055116,-0.047243,-0.052492,-0.060366,-0.055116,-0.049867,-0.052492,-0.044618,-0.057741,-0.055116,-0.049867,-0.055116,-0.044618,-0.049867,-0.041993,-0.036744,-0.039369,-0.052492,-0.031495,-0.03412,-0.044618,-0.044618,-0.036744,-0.036744,-0.039369,-0.026246,-0.036744,-0.026246,-0.036744,-0.041993,-0.049867,-0.044618,-0.047243,-0.036744,-0.020997,0.002625,0.047243,0.091861,0.11548,0.11023,0.12598,0.1601,0.19684,0.22571,0.30183,0.37794,0.49605,0.67452,0.88974,1.0288,1.0735,1.021,0.84774,0.55641,0.21522,-0.081362,-0.2887,-0.40944,-0.4593,-0.4908,-0.54067,-0.58003,-0.56691,-0.53542,-0.48555,-0.42781,-0.36482,-0.2887,-0.24409,-0.22309,-0.18635,-0.15223,-0.12336,-0.086612,-0.065615,-0.044618,-0.023621,-0.015748,-0.013123,-0.005249,-0.007874,-0.010498,0.002625,0.005249,0.007874,0.020997,0.020997,0.018372,0.020997,0.028871,0.028871,0.028871,0.031495,0.03412,0.03412,0.036744,0.03412,0.041993,0.031495,0.03412,0.049867,0.041993,0.049867,0.052492,0.060366,0.065615,0.060366,0.065615,0.070864,0.073489,0.068239,0.081362,0.086612,0.091861,0.076113,0.089236,0.086612,0.091861,0.099734,0.099734,0.10761,0.10761,0.11286,0.11811,0.11548,0.1286,0.1286,0.13123,0.14698,0.16273,0.16535,0.1601,0.16535,0.1706,0.18372,0.18372,0.19159,0.20209,0.20472,0.21259,0.22309,0.23884,0.24146,0.24934,0.27558,0.28346,0.28346,0.30183,0.31495,0.33857,0.33857,0.35694,0.37269,0.38844,0.39369,0.40944,0.42256,0.43831,0.4593,0.47768,0.48555,0.50392,0.50655,0.51179,0.52492,0.54592,0.54592,0.57479,0.57216,0.57741,0.56691,0.57741,0.57741,0.58528,0.58266,0.59053,0.58266,0.57479,0.56166,0.55641,0.55116,0.53017,0.53542,0.50655,0.4908,0.4698,0.45143,0.42256,0.40681,0.39106,0.37269,0.33857,0.3202,0.3097,0.28083,0.26771,0.24934,0.23096,0.21522,0.19422,0.17322,0.1496,0.14435,0.1286,0.11548,0.10236,0.099734,0.086612,0.081362,0.078738,0.06299,0.065615,0.052492,0.039369,0.031495,0.041993,0.041993,0.028871,0.018372,0.023621,0.031495,0.007874,0.020997,0.020997,0.015748,0.007874,0.015748,0.010498,0.015748,0.005249,0.010498,0.002625,0.002625,0.005249,0,0.010498,0,0.005249,0.007874,0,0,0.015748,0,0.007874,0.005249,0.005249,0.002625,0.007874,0.005249,0.005249,0.002625,0.007874,0.002625,0.002625,0,0.007874,0.023621,0.005249,-0.002625,0.015748,0.018372,0.007874,0.005249,0.010498,0.005249,0.002625,0.013123,0.005249,0.002625,0.010498,0.018372,0.018372,0.013123,0.015748,0.005249,0.015748,0.013123,0.015748,0.013123,0.010498,0.010498,0.013123,0.013123,0.002625,0.002625,0.002625,0.018372,0.002625,0.002625,0.010498,0.013123,0.007874,0.010498,0.018372,0.007874,0.007874,0,0.010498,0.002625,0.002625,0.002625,0.002625,-0.010498,-0.013123,-0.007874,-0.005249,-0.013123,-0.013123,-0.010498,-0.010498,-0.007874,-0.007874,-0.007874,-0.002625,-0.007874,-0.010498,-0.015748,-0.013123,-0.010498,-0.018372,-0.010498,-0.007874,-0.013123,-0.023621,-0.023621,-0.013123,-0.026246,-0.018372,-0.028871,-0.023621,-0.020997,-0.026246,-0.020997,-0.023621,-0.028871,-0.026246,-0.015748,-0.031495,-0.026246,-0.036744,-0.036744,-0.026246,-0.031495,-0.036744,-0.044618,-0.036744,-0.041993,-0.044618,-0.047243,-0.039369,-0.036744,-0.044618,-0.036744,-0.031495,-0.03412,-0.036744,-0.041993,-0.03412,-0.044618,-0.041993,-0.03412,-0.039369,-0.047243,-0.055116,-0.044618,-0.047243,-0.055116,-0.041993,-0.039369,-0.039369,-0.047243,-0.044618,-0.041993,-0.044618,-0.041993,-0.044618,-0.044618,-0.044618,-0.041993,-0.041993,-0.044618,-0.055116,-0.047243,-0.052492,-0.044618,-0.060366,-0.055116,-0.052492,-0.049867,-0.036744,-0.052492,-0.047243,-0.055116,-0.044618,-0.049867,-0.049867,-0.055116,-0.044618,-0.060366,-0.055116,-0.055116,-0.047243,-0.055116,-0.049867,-0.047243,-0.047243,-0.044618,-0.047243,-0.055116,-0.052492,-0.060366,-0.047243,-0.049867,-0.044618,-0.049867,-0.041993,-0.049867,-0.052492,-0.060366,-0.052492,-0.049867,-0.052492,-0.047243,-0.052492,-0.057741,-0.047243,-0.041993,-0.047243,-0.044618,-0.052492,-0.047243,-0.049867,-0.044618,-0.06299,-0.052492,-0.052492,-0.055116,-0.060366,-0.047243,-0.03412,-0.039369,-0.041993,-0.047243,-0.047243,-0.052492,-0.047243,-0.049867,-0.049867,-0.047243,-0.047243,-0.044618,-0.03412,-0.057741,-0.049867,-0.039369,-0.047243,-0.052492,-0.039369,-0.041993,-0.047243,-0.049867,-0.055116,-0.044618,-0.052492,-0.039369,-0.047243,-0.055116,-0.057741,-0.03412,-0.049867,-0.055116,-0.049867,-0.036744,-0.044618,-0.044618,-0.049867,-0.047243,-0.039369,-0.047243,-0.036744,-0.049867,-0.047243,-0.047243,-0.055116,-0.049867,-0.036744,-0.044618,-0.039369,-0.039369,-0.047243,-0.041993,-0.018372,-0.007874,0.020997,0.026246,0.041993,0.047243,0.03412,0.026246,0.028871,0.020997,0.023621,0.013123,0.007874,0.007874,0.015748,0.028871,0.036744,0.031495,0.026246,0.039369,0.060366,0.047243,0.047243,0.039369,0.026246,0.015748,0.013123,0.018372,0.010498,-0.002625,0.007874,0.002625,0.002625,-0.007874,-0.020997,-0.03412,-0.026246,-0.039369,-0.047243,-0.065615,-0.070864,-0.06299,-0.065615,-0.083987,-0.076113,-0.076113,-0.083987,-0.094485,-0.089236,-0.083987,-0.086612,-0.089236,-0.094485,-0.099734,-0.086612,-0.081362,-0.089236,-0.076113,-0.083987,-0.086612,-0.078738,-0.076113,-0.076113,-0.076113,-0.081362,-0.078738,-0.070864,-0.081362,-0.068239,-0.076113,-0.068239,-0.078738,-0.078738,-0.089236,-0.081362,-0.078738,-0.081362,-0.083987,-0.083987,-0.081362,-0.073489,-0.089236,-0.083987,-0.073489,-0.073489,-0.073489,-0.083987,-0.078738,-0.068239,-0.078738,-0.073489,-0.060366,-0.068239,-0.073489,-0.060366,-0.060366,-0.06299,-0.060366,-0.049867,-0.057741,-0.060366,-0.049867,-0.065615,-0.052492,-0.070864,-0.049867,-0.052492,-0.057741,-0.06299,-0.041993,-0.041993,-0.052492,-0.057741,-0.052492,-0.055116,-0.057741,-0.039369,-0.018372,0.023621,0.068239,0.078738,0.076113,0.10498,0.1286,0.1601,0.20734,0.28346,0.35432,0.46193,0.66402,0.86874,1.021,1.0708,1.021,0.85299,0.55904,0.22309,-0.052492,-0.25721,-0.37532,-0.41731,-0.46718,-0.51704,-0.55641,-0.55379,-0.51967,-0.48555,-0.41994,-0.35694,-0.30445,-0.24934,-0.21259,-0.19159,-0.15748,-0.12336,-0.094485,-0.057741,-0.049867,-0.036744,-0.013123,-0.015748,-0.020997,0,-0.002625,-0.007874,0.007874,0.010498,0.002625,0.002625,0.013123,0.010498,0.018372,0.023621,0.020997,0.028871,0.028871,0.036744,0.028871,0.028871,0.041993,0.041993,0.044618,0.049867,0.055116,0.047243,0.049867,0.055116,0.065615,0.068239,0.060366,0.076113,0.065615,0.060366,0.068239,0.073489,0.076113,0.078738,0.083987,0.089236,0.091861,0.094485,0.10761,0.10236,0.10236,0.11286,0.11023,0.11023,0.10761,0.11286,0.12336,0.13123,0.1391,0.14173,0.14435,0.15485,0.16273,0.15748,0.1706,0.18372,0.19159,0.19684,0.20209,0.21259,0.21522,0.23359,0.23359,0.24934,0.25721,0.27558,0.28608,0.30708,0.30445,0.31758,0.3412,0.34907,0.36482,0.37794,0.39894,0.39894,0.42256,0.44093,0.45143,0.46455,0.48292,0.5013,0.50392,0.50392,0.52754,0.54592,0.54854,0.55641,0.55641,0.55641,0.56166,0.57479,0.56954,0.58003,0.57741,0.56691,0.56166,0.55379,0.55116,0.54592,0.52492,0.51442,0.50392,0.49342,0.4698,0.44618,0.42518,0.40681,0.39894,0.36744,0.34645,0.3307,0.30708,0.28346,0.26771,0.24409,0.22571,0.20734,0.19159,0.17585,0.15748,0.15485,0.13385,0.12336,0.099734,0.09711,0.099734,0.068239,0.068239,0.060366,0.057741,0.052492,0.047243,0.036744,0.03412,0.03412,0.018372,0.039369,0.031495,0.028871,0.031495,0.015748,0.020997,0.013123,0.018372,0.026246,0.013123,0.010498,0.018372,0.005249,0.005249,0.013123,0.018372,0.007874,0.007874,0.007874,0.015748,0.005249,0.013123,0.007874,0.007874,0.013123,-0.005249,0,0.002625,0,-0.005249,0.010498,0.002625,0.002625,0.002625,0.002625,-0.007874,0.007874,0.005249,0.018372,0,0.007874,0.005249,0.002625,0.018372,0.007874,0.002625,0.005249,0,-0.005249,0.010498,0.010498,0.005249,0.013123,0.007874,0,0.007874,0,0.002625,0.005249,0.007874,0.005249,0.010498,0.013123,0.005249,0.005249,0.005249,0.002625,0.005249,0.015748,0.005249,0.010498,0.005249,0.007874,0.007874,0.007874,0.007874,0.020997,0.007874,0.010498,0.010498,0.005249,0.005249,0.002625,0.013123,0.002625,0.007874,0.007874,0.010498,-0.007874,-0.010498,0.007874,-0.005249,0,-0.005249,0.002625,0.002625,-0.010498,-0.002625,0.002625,-0.002625,-0.010498,-0.010498,0.002625,-0.007874,-0.005249,-0.007874,-0.013123,-0.010498,-0.010498,-0.005249,-0.010498,-0.013123,-0.015748,-0.018372,-0.007874,-0.018372,-0.018372,-0.026246,-0.018372,-0.007874,-0.018372,-0.018372,-0.015748,-0.020997,-0.028871,-0.015748,-0.023621,-0.013123,-0.023621,-0.026246,-0.031495,-0.018372,-0.010498,-0.028871,-0.026246,-0.023621,-0.018372,-0.023621,-0.026246,-0.028871,-0.026246,-0.028871,-0.026246,-0.028871,-0.015748,-0.013123,-0.026246,-0.026246,-0.015748,-0.020997,-0.023621,-0.020997,-0.028871,-0.023621,-0.028871,-0.023621,-0.028871,-0.018372,-0.020997,-0.031495,-0.03412,-0.03412,-0.03412,-0.026246,-0.023621,-0.018372,-0.026246,-0.018372,-0.026246,-0.026246,-0.026246,-0.028871,-0.031495,-0.028871,-0.026246,-0.023621,-0.023621,-0.028871,-0.041993,-0.020997,-0.020997,-0.023621,-0.023621,-0.03412,-0.020997,-0.028871,-0.028871,-0.028871,-0.023621,-0.031495,-0.041993,-0.036744,-0.028871,-0.031495,-0.026246,-0.031495,-0.026246,-0.031495,-0.041993,-0.03412,-0.031495,-0.03412,-0.044618,-0.03412,-0.031495,-0.039369,-0.03412,-0.018372,-0.015748,-0.005249,0.002625,0.015748,0.039369,0.049867,0.055116,0.06299,0.055116,0.057741,0.047243,0.044618,0.041993,0.036744,0.03412,0.028871,0.070864,0.068239,0.065615,0.070864,0.070864,0.076113,0.081362,0.076113,0.073489,0.060366,0.044618,0.039369,0.041993,0.047243,0.023621,0.020997,0.018372,0.028871,0.023621,0.002625,-0.018372,-0.018372,-0.036744,-0.044618,-0.041993,-0.044618,-0.041993,-0.055116,-0.057741,-0.052492,-0.060366,-0.06299,-0.068239,-0.070864,-0.06299,-0.070864,-0.078738,-0.078738,-0.076113,-0.078738,-0.078738,-0.076113,-0.086612,-0.076113,-0.081362,-0.078738,-0.076113,-0.086612,-0.089236,-0.086612,-0.083987,-0.091861,-0.081362,-0.086612,-0.083987,-0.078738,-0.086612,-0.081362,-0.083987,-0.078738,-0.073489,-0.083987,-0.089236,-0.083987,-0.083987,-0.078738,-0.091861,-0.086612,-0.089236,-0.078738,-0.081362,-0.083987,-0.081362,-0.081362,-0.086612,-0.083987,-0.073489,-0.083987,-0.070864,-0.070864,-0.060366,-0.049867,-0.068239,-0.060366,-0.049867,-0.055116,-0.06299,-0.047243,-0.057741,-0.049867,-0.060366,-0.060366,-0.06299,-0.068239,-0.049867,-0.044618,-0.005249,0.026246,0.070864,0.078738,0.065615,0.065615,0.09711,0.13385,0.18372,0.23359,0.31758,0.4593,0.64827,0.85824,0.9921,1.0315,0.99472,0.83725,0.55116,0.25196,-0.002625,-0.20472,-0.3202,-0.36219,-0.40944,-0.46193,-0.51704,-0.54067,-0.51967,-0.49342,-0.44356,-0.38582,-0.32807,-0.27296,-0.23621,-0.21259,-0.18897,-0.15223,-0.13123,-0.10498,-0.081362,-0.047243,-0.031495,-0.020997,-0.020997,-0.018372,-0.020997,-0.020997,-0.015748,0,-0.005249,-0.013123,-0.007874,0.002625,0.007874,0.002625,0.015748,0.018372,0.002625,0.005249,0.020997,0.005249,0.007874,0.018372,0.005249,0.018372,0.018372,0.015748,0.020997,0.03412,0.020997,0.028871,0.028871,0.026246,0.03412,0.036744,0.041993,0.03412,0.031495,0.039369,0.03412,0.03412,0.03412,0.044618,0.041993,0.044618,0.047243,0.057741,0.065615,0.060366,0.076113,0.078738,0.070864,0.081362,0.083987,0.086612,0.086612,0.10236,0.10236,0.10761,0.11548,0.13123,0.1391,0.14173,0.15485,0.15485,0.15748,0.16535,0.18372,0.19159,0.20734,0.21784,0.22834,0.24146,0.25459,0.27033,0.30183,0.29658,0.31233,0.32282,0.3412,0.34907,0.36219,0.37794,0.39894,0.43568,0.43831,0.46193,0.46718,0.47768,0.49605,0.49867,0.51442,0.51704,0.53279,0.54329,0.53542,0.54067,0.55116,0.55116,0.54854,0.54854,0.54329,0.53542,0.52229,0.51442,0.49867,0.49342,0.4698,0.46455,0.44618,0.42781,0.40156,0.37532,0.35169,0.33332,0.31233,0.2887,0.26771,0.25459,0.22834,0.20997,0.19947,0.18372,0.15485,0.13648,0.12336,0.11023,0.10761,0.083987,0.070864,0.076113,0.060366,0.060366,0.052492,0.036744,0.039369,0.015748,0.023621,0.018372,0,0,0,0,-0.010498,-0.013123,-0.010498,0,-0.010498,-0.015748,-0.020997,-0.028871,-0.015748,-0.028871,-0.015748,-0.007874,-0.018372,-0.015748,-0.023621,-0.026246,-0.020997,-0.007874,-0.010498,-0.026246,-0.028871,-0.03412,-0.028871,-0.031495,-0.044618,-0.041993,-0.03412,-0.036744,-0.03412,-0.026246,-0.020997,-0.026246,-0.03412,-0.031495,-0.018372,-0.023621,-0.026246,-0.031495,-0.03412,-0.023621,-0.03412,-0.044618,-0.044618,-0.041993,-0.028871,-0.03412,-0.041993,-0.020997,-0.023621,-0.026246,-0.028871,-0.026246,-0.023621,-0.028871,-0.015748,-0.013123,-0.031495,-0.028871,-0.028871,-0.03412,-0.028871,-0.028871,-0.028871,-0.028871,-0.023621,-0.018372,-0.020997,-0.018372,-0.028871,-0.03412,-0.020997,-0.028871,-0.039369,-0.03412,-0.026246,-0.041993,-0.036744,-0.036744,-0.03412,-0.039369,-0.047243,-0.020997,-0.020997,-0.028871,-0.03412,-0.049867,-0.044618,-0.047243,-0.052492,-0.052492,-0.047243,-0.039369,-0.044618,-0.031495,-0.044618,-0.065615,-0.068239,-0.060366,-0.055116,-0.068239,-0.060366,-0.047243,-0.057741,-0.049867,-0.041993,-0.055116,-0.041993,-0.06299,-0.060366,-0.060366,-0.073489,-0.073489,-0.070864,-0.076113,-0.068239,-0.068239,-0.068239,-0.070864,-0.073489,-0.081362,-0.076113,-0.068239,-0.081362,-0.081362,-0.086612,-0.070864,-0.078738,-0.073489,-0.086612,-0.078738,-0.081362,-0.070864,-0.076113,-0.070864,-0.083987,-0.078738,-0.076113,-0.09711,-0.086612,-0.094485,-0.091861,-0.081362,-0.076113,-0.083987,-0.091861,-0.081362,-0.081362,-0.086612,-0.083987,-0.078738,-0.091861,-0.081362,-0.086612,-0.081362,-0.083987,-0.089236,-0.094485,-0.094485,-0.09711,-0.089236,-0.083987,-0.083987,-0.091861,-0.081362,-0.078738,-0.076113,-0.06299,-0.041993,-0.041993,-0.031495,-0.018372,-0.010498,-0.013123,-0.010498,-0.018372,-0.023621,-0.026246,-0.013123,-0.013123,-0.005249,0.002625,0.020997,0.026246,0.010498,0.015748,0.018372,0.026246,0.007874,0.005249,0.002625,-0.007874,-0.013123,-0.023621,-0.026246,-0.03412,-0.044618,-0.03412,-0.026246,-0.03412,-0.060366,-0.078738,-0.086612,-0.10236,-0.091861,-0.10498,-0.099734,-0.10498,-0.10236,-0.10498,-0.12073,-0.11286,-0.13123,-0.13123,-0.13123,-0.1286,-0.12598,-0.13123,-0.13385,-0.12336,-0.1286,-0.1286,-0.13385,-0.13648,-0.1391,-0.13123,-0.13648,-0.12336,-0.13123,-0.13648,-0.1391,-0.1286,-0.13648,-0.13123,-0.1286,-0.1391,-0.13123,-0.12598,-0.12598,-0.12598,-0.13123,-0.13385,-0.13123,-0.1391,-0.13385,-0.14435,-0.1496,-0.12073,-0.12336,-0.12073,-0.11811,-0.11548,-0.11548,-0.11023,-0.12336,-0.11548,-0.10498,-0.11023,-0.11548,-0.10761,-0.11286,-0.10761,-0.11548,-0.11548,-0.10498,-0.11023,-0.11286,-0.10761,-0.11548,-0.11286,-0.12073,-0.12336,-0.13648,-0.11811,-0.086612,-0.060366,-0.020997,0.002625,-0.010498,0,0.018372,0.052492,0.09711,0.15748,0.23621,0.37794,0.56691,0.75588,0.86611,0.89499,0.84512,0.73226,0.47505,0.17847,-0.068239,-0.25196,-0.38319,-0.44356,-0.49342,-0.52492,-0.55904,-0.57479,-0.58266,-0.56691,-0.54329,-0.48555,-0.42256,-0.37532,-0.32282,-0.29395,-0.27033,-0.25196,-0.22309,-0.18897,-0.17322,-0.14435,-0.11548,-0.09711,-0.10236,-0.086612,-0.076113,-0.083987,-0.076113,-0.065615,-0.070864,-0.065615,-0.055116,-0.052492,-0.052492,-0.06299,-0.055116,-0.039369,-0.03412,-0.028871,-0.026246,-0.020997,-0.03412,-0.023621,-0.018372,-0.020997,-0.026246,-0.03412,-0.023621,-0.013123,-0.015748,-0.010498,-0.015748,-0.013123,-0.010498,-0.020997,-0.010498,-0.002625,-0.015748,-0.005249,0.002625,0.002625,0.010498,0.007874,0.010498,0.007874,0.013123,0.010498,0.015748,0.013123,0.018372,0.020997,0.028871,0.031495,0.057741,0.039369,0.039369,0.055116,0.052492,0.068239,0.089236,0.091861,0.083987,0.099734,0.10761,0.11548,0.12336,0.13385,0.14698,0.14698,0.15748,0.17585,0.19159,0.20997,0.21522,0.22571,0.24671,0.26771,0.27821,0.29133,0.30445,0.3202,0.33332,0.36219,0.37794,0.38844,0.38844,0.41206,0.41994,0.43831,0.44618,0.4593,0.46455,0.4698,0.47768,0.4908,0.48817,0.48817,0.49605,0.50392,0.4803,0.47768,0.4908,0.47768,0.4593,0.43568,0.44356,0.42256,0.40944,0.39369,0.35169,0.33857,0.32282,0.3097,0.27033,0.26246,0.23096,0.21522,0.18635,0.17322,0.16273,0.1391,0.11548,0.11023,0.094485,0.073489,0.06299,0.052492,0.039369,0.013123,-0.002625,-0.002625,-0.010498,-0.023621,-0.018372,-0.015748,-0.028871,-0.031495,-0.039369,-0.039369,-0.036744,-0.039369,-0.044618,-0.047243,-0.047243,-0.047243,-0.041993,-0.055116,-0.06299,-0.052492,-0.055116,-0.049867,-0.049867,-0.052492,-0.057741,-0.055116,-0.044618,-0.049867,-0.041993,-0.039369,-0.047243,-0.044618,-0.047243,-0.044618,-0.039369,-0.039369,-0.055116,-0.052492,-0.041993,-0.049867,-0.052492,-0.047243,-0.044618,-0.047243,-0.044618,-0.044618,-0.047243,-0.044618,-0.041993,-0.049867,-0.044618,-0.036744,-0.039369,-0.044618,-0.047243,-0.041993,-0.039369,-0.031495,-0.036744,-0.03412,-0.036744,-0.036744,-0.036744,-0.020997,-0.03412,-0.031495,-0.031495,-0.031495,-0.036744,-0.031495,-0.036744,-0.036744,-0.018372,-0.036744,-0.036744,-0.026246,-0.03412,-0.036744,-0.031495,-0.023621,-0.028871,-0.028871,-0.028871,-0.03412,-0.031495,-0.03412,-0.020997,-0.028871,-0.036744,-0.039369,-0.031495,-0.028871,-0.036744,-0.028871,-0.044618,-0.03412,-0.039369,-0.036744,-0.036744,-0.047243,-0.039369,-0.036744,-0.026246,-0.03412,-0.031495,-0.041993,-0.052492,-0.044618,-0.049867,-0.044618,-0.039369,-0.044618,-0.036744,-0.049867,-0.047243,-0.041993,-0.055116,-0.065615,-0.049867,-0.057741,-0.052492,-0.049867,-0.041993,-0.041993,-0.044618,-0.041993,-0.047243,-0.041993,-0.044618,-0.055116,-0.052492,-0.068239,-0.057741,-0.060366,-0.060366,-0.057741,-0.057741,-0.055116,-0.047243,-0.052492,-0.047243,-0.060366,-0.052492,-0.052492,-0.065615,-0.047243,-0.057741,-0.06299,-0.060366,-0.044618,-0.057741,-0.06299,-0.060366,-0.057741,-0.049867,-0.049867,-0.023621,-0.031495,-0.018372,-0.013123,0.010498,0.015748,0.031495,0.031495,0.03412,0.028871,0.028871,0.013123,0.018372,0.028871,0.036744,0.041993,0.060366,0.065615,0.068239,0.073489,0.073489,0.073489,0.068239,0.057741,0.047243,0.052492,0.031495,0.023621,0.028871,0.015748,0.013123,0.007874,0.013123,0.013123,0.010498,-0.015748,-0.039369,-0.041993,-0.041993,-0.055116,-0.060366,-0.073489,-0.065615,-0.068239,-0.076113,-0.068239,-0.078738,-0.094485,-0.089236,-0.089236,-0.081362,-0.083987,-0.094485,-0.09711,-0.089236,-0.094485,-0.091861,-0.086612,-0.09711,-0.099734,-0.09711,-0.09711,-0.094485,-0.099734,-0.10236,-0.10761,-0.10761,-0.089236,-0.091861,-0.10236,-0.094485,-0.091861,-0.09711,-0.099734,-0.09711,-0.086612,-0.091861,-0.091861,-0.089236,-0.091861,-0.09711,-0.083987,-0.073489,-0.089236,-0.083987,-0.081362,-0.073489,-0.070864,-0.070864,-0.068239,-0.081362,-0.078738,-0.068239,-0.060366,-0.055116,-0.057741,-0.065615,-0.06299,-0.065615,-0.057741,-0.065615,-0.060366,-0.06299,-0.073489,-0.078738,-0.078738,-0.06299,-0.026246,0.013123,0.049867,0.083987,0.078738,0.081362,0.094485,0.1391,0.1706,0.21784,0.30183,0.42256,0.59578,0.79525,0.96585,1.0288,1.0078,0.89236,0.62465,0.30445,0.020997,-0.21259,-0.33857,-0.40681,-0.45143,-0.48817,-0.53017,-0.56166,-0.56429,-0.53804,-0.48292,-0.41469,-0.35432,-0.30183,-0.25721,-0.22309,-0.19422,-0.18372,-0.15485,-0.11811,-0.076113,-0.06299,-0.041993,-0.03412,-0.020997,-0.031495,-0.015748,-0.013123,-0.018372,-0.010498,-0.015748,-0.007874,-0.002625,0,-0.005249,0.007874,0.007874,0,0.005249,0.002625,0.013123,0.020997,0.007874,0.018372,0.018372,0.005249,0.023621,0.026246,0.020997,0.023621,0.028871,0.020997,0.028871,0.031495,0.020997,0.031495,0.03412,0.03412,0.044618,0.047243,0.044618,0.047243,0.070864,0.060366,0.060366,0.076113,0.078738,0.083987,0.081362,0.083987,0.091861,0.094485,0.09711,0.099734,0.09711,0.10236,0.11548,0.10236,0.11811,0.1286,0.14173,0.13648,0.13648,0.1391,0.15223,0.16273,0.17322,0.19159,0.20209,0.20472,0.22309,0.23884,0.23884,0.26246,0.27296,0.28608,0.30183,0.3097,0.32807,0.34382,0.35169,0.38057,0.38844,0.39894,0.41731,0.43831,0.44356,0.45668,0.46718,0.4908,0.48292,0.49867,0.49867,0.51704,0.52754,0.53017,0.52754,0.54329,0.52754,0.52754,0.52754,0.53542,0.51704,0.51179,0.5013,0.48555,0.47505,0.46455,0.44093,0.42256,0.40156,0.38057,0.36482,0.32807,0.31495,0.28346,0.26508,0.24146,0.22309,0.20734,0.19947,0.17322,0.14698,0.1286,0.11548,0.091861,0.089236,0.068239,0.055116,0.052492,0.028871,0.026246,0.026246,0.007874,0.015748,0.005249,-0.007874,-0.007874,-0.007874,-0.023621,-0.020997,-0.013123,-0.028871,-0.023621,-0.023621,-0.023621,-0.028871,-0.018372,-0.028871,-0.03412,-0.028871,-0.036744,-0.03412,-0.039369,-0.03412,-0.036744,-0.023621,-0.023621,-0.023621,-0.020997,-0.026246,-0.023621,-0.007874,-0.020997,-0.013123,-0.020997,-0.015748,-0.015748,-0.020997,-0.015748,-0.018372,-0.005249,-0.010498,-0.010498,-0.013123,-0.002625,-0.015748,-0.007874,-0.005249,-0.002625,0,-0.005249,0,0.002625,-0.002625,-0.005249,0,0,0.002625,0.007874,0.002625,-0.005249,0.010498,0.005249,0.002625,0,0.013123,0.005249,0.005249,0.005249,0.002625,0.018372,0.002625,0.010498,0.010498,0.007874,0.018372,0.007874,0.015748,0.015748,0,0.007874,0.002625,0.010498,0.002625,0.005249,0.013123,0.002625,0,0.010498,0.005249,0,0,0.015748,0.010498,0.005249,0,0.002625,-0.005249,-0.005249,-0.007874,-0.010498,-0.005249,-0.018372,-0.010498,-0.013123,-0.007874,-0.018372,-0.005249,-0.007874,-0.028871,-0.018372,-0.010498,-0.010498,-0.005249,-0.018372,-0.018372,-0.018372,-0.007874,-0.023621,-0.020997,-0.03412,-0.031495,-0.023621,-0.023621,-0.031495,-0.026246,-0.020997,-0.026246,-0.026246,-0.031495,-0.03412,-0.028871,-0.031495,-0.026246,-0.031495,-0.028871,-0.026246,-0.015748,-0.031495,-0.044618,-0.03412,-0.028871,-0.031495,-0.026246,-0.031495,-0.036744,-0.03412,-0.039369,-0.026246,-0.020997,-0.03412,-0.047243,-0.03412,-0.023621,-0.018372,-0.03412,-0.039369,-0.026246,-0.023621,-0.036744,-0.039369,-0.039369,-0.036744,-0.031495,-0.036744,-0.03412,-0.03412,-0.031495,-0.031495,-0.031495,-0.03412,-0.041993,-0.039369,-0.036744,-0.031495,-0.031495,-0.020997,-0.03412,-0.031495,-0.031495,-0.031495,-0.044618,-0.03412,-0.028871,-0.031495,-0.010498,-0.007874,0,0.020997,0.03412,0.049867,0.060366,0.055116,0.049867,0.047243,0.049867,0.03412,0.041993,0.044618,0.044618,0.049867,0.060366,0.073489,0.065615,0.068239,0.083987,0.086612,0.068239,0.057741,0.076113,0.057741,0.052492,0.041993,0.036744,0.03412,0.015748,0.023621,0.036744,0.031495,0.020997,-0.002625,-0.007874,-0.007874,-0.028871,-0.049867,-0.041993,-0.049867,-0.06299,-0.049867,-0.055116,-0.057741,-0.049867,-0.049867,-0.078738,-0.073489,-0.065615,-0.068239,-0.076113,-0.068239,-0.068239,-0.068239,-0.068239,-0.060366,-0.065615,-0.065615,-0.076113,-0.068239,-0.078738,-0.076113,-0.081362,-0.081362,-0.081362,-0.073489,-0.081362,-0.076113,-0.076113,-0.076113,-0.076113,-0.070864,-0.073489,-0.078738,-0.06299,-0.081362,-0.076113,-0.078738,-0.073489,-0.078738,-0.073489,-0.070864,-0.076113,-0.078738,-0.065615,-0.065615,-0.065615,-0.065615,-0.057741,-0.06299,-0.060366,-0.057741,-0.065615,-0.060366,-0.068239,-0.057741,-0.057741,-0.052492,-0.049867,-0.057741,-0.06299,-0.065615,-0.073489,-0.06299,-0.065615,-0.060366,-0.015748,0.023621,0.06299,0.073489,0.06299,